"Total Time (s)","Cycle Elapsed Time (s)","Total Cycles","Elapsed Cycles","Step","Loop 1","Total Cycle Count(Linear Waveform)","Position(Linear:Position) (mm)","Force(Linear:Load) (kN)","Displacement(Linear:Digital Position) (mm)",
6.124,0,1,1,3,1,0,11.0887588653713,-0.0198727753013372,11.0887559317052,
6.134,0.00999999999999979,1,1,3,1,0,11.0886642057449,-0.0200077192857862,11.0886612720788,
6.15,0.0259999999999998,1,1,3,1,0,11.0851628612727,-0.0209205877035856,11.0851599834859,
6.16,0.0359999999999996,1,1,3,1,0,11.0662161838263,-0.0220026168972254,11.0662133060396,
6.17,0.0459999999999994,1,1,3,1,0,11.0248602088541,-0.0243873428553343,11.024857275188,
6.18,0.0559999999999992,1,1,3,1,0,10.96181220375,-0.0269427197054029,10.9618092700839,
6.19,0.0659999999999998,1,1,3,1,0,10.8876746054739,-0.029833703301847,10.8876716718078,
6.2,0.0759999999999996,1,1,3,1,0,10.8147331606597,-0.0335054425522685,10.8147302269936,
6.21,0.0859999999999994,1,1,3,1,0,10.7397473976016,-0.0376735581085086,10.7397444918752,
6.22,0.0959999999999992,1,1,3,1,0,10.6485131196678,-0.042472300119698,10.6485102139413,
6.23,0.106,1,1,3,1,0,10.5327531415969,-0.0477562611922622,10.5327502638102,
6.24,0.116,1,1,3,1,0,10.4000451508909,-0.0535014923661947,10.4000422172248,
6.25,0.125999999999999,1,1,3,1,0,10.2603362314403,-0.0598363950848579,10.2603333257139,
6.26,0.135999999999999,1,1,3,1,0,10.1124295871705,-0.0670995051041245,10.1124266535044,
6.27,0.146,1,1,3,1,0,9.95246822945773,-0.0740903802216053,9.95246529579163,
6.28,0.156,1,1,3,1,0,9.78263148106635,-0.0820224778726697,9.78262854740024,
6.29,0.165999999999999,1,1,3,1,0,9.60017549805343,-0.0902428850531578,9.60017256438732,
6.3,0.175999999999999,1,1,3,1,0,9.40539557486773,-0.0989264901727438,9.40539266914129,
6.31,0.186,1,1,3,1,0,9.20035483315587,-0.108141964301467,9.20035192742944,
6.32,0.196,1,1,3,1,0,8.98207884281874,-0.1175397913903,8.9820759370923,
6.324,0.199999999999999,1,1,3,1,0,8.89217871241272,-0.121430740691721,8.8921757787466,
6.334,0.21,1,1,3,1,0,8.66159685887396,-0.128863379359245,8.66159392520785,
6.344,0.22,1,1,3,1,0,8.47846990451217,-0.133600425906479,8.47846699878573,
6.354,0.23,1,1,3,1,0,8.38000838644803,-0.138372294604778,8.38000550866127,
6.364,0.239999999999999,1,1,3,1,0,8.321537906304,-0.142065272666514,8.32153497263789,
6.374,0.25,1,1,3,1,0.25,8.23981680907309,-0.146223548799753,8.23981387540698,
6.384,0.26,1,1,3,1,0.25,8.10498548671603,-0.150149362161756,8.1049825809896,
6.394,0.27,1,1,3,1,0.25,7.94435765594244,-0.154900709167123,7.94435475021601,
6.404,0.279999999999999,1,1,3,1,0.25,7.80070988461375,-0.159686780534685,7.80070697888732,
6.414,0.289999999999999,1,1,3,1,0.25,7.68400255590677,-0.163591112941504,7.68399965018034,
6.424,0.3,1,1,3,1,0.25,7.58272980339825,-0.168059472925961,7.58272686973214,
6.434,0.31,1,1,3,1,0.25,7.47520873323083,-0.171781005337834,7.4752058275044,
6.444,0.319999999999999,1,1,3,1,0.25,7.35440709628165,-0.176136074587703,7.35440416261554,
6.454,0.329999999999999,1,1,3,1,0.25,7.2223895508796,-0.180334262549877,7.22238661721349,
6.464,0.34,1,1,3,1,0.25,7.08994749002159,-0.184828517958522,7.08994455635548,
6.474,0.35,1,1,3,1,0.25,6.96616664528847,-0.188782927580178,6.96616373956203,
6.484,0.359999999999999,1,1,3,1,0.25,6.85063803568482,-0.192561969161034,6.85063512995839,
6.494,0.369999999999999,1,1,3,1,0.25,6.73894967883825,-0.196548011153936,6.73894677311182,
6.504,0.38,1,1,3,1,0.25,6.6195435449481,-0.200728252530098,6.61954063922167,
6.514,0.39,1,1,3,1,0.25,6.4920868165791,-0.204361961223185,6.49208391085267,
6.524,0.399999999999999,1,1,3,1,0.25,6.36579466983676,-0.207675094716251,6.36579176411033,
6.534,0.409999999999999,1,1,3,1,0.25,6.24870529398322,-0.212004776112735,6.24870238825679,
6.544,0.42,1,1,3,1,0.25,6.13639201037586,-0.215610256418586,6.1363891325891,
6.554,0.43,1,1,3,1,0.25,6.01871618069708,-0.21944822743535,6.01871324703097,
6.564,0.44,1,1,3,1,0.25,5.89619404636323,-0.222860700450838,5.89619111269712,
6.574,0.449999999999999,1,1,3,1,0.25,5.7739257439971,-0.226539056748152,5.77392283827066,
6.584,0.46,1,1,3,1,0.25,5.65246369689703,-0.230176374316216,5.6524607911706,
6.594,0.47,1,1,3,1,0.25,5.53113939240575,-0.233772005885839,5.53113648667932,
6.604,0.48,1,1,3,1,0.25,5.41312359273434,-0.236804145388305,5.4131206870079,
6.614,0.489999999999999,1,1,3,1,0.25,5.29906268231571,-0.240799649618566,5.2990597486496,
6.624,0.5,1,1,3,1,0.5,5.1770256087184,-0.244131828658283,5.17702270299196,
6.628,0.504,1,1,3,1,0.5,5.12611127458513,-0.24521610699594,5.12610834091902,
6.638,0.513999999999999,1,1,3,1,0.5,5.03252120688558,-0.24077910464257,5.03251830115914,
6.64,0.516,1,1,3,1,0.5,5.02981284633279,-0.240877270698547,5.02980994060636,
6.65,0.526,1,1,3,1,0.5,5.10497393086553,-0.235507255420089,5.10497102513909,
6.66,0.536,1,1,3,1,0.5,5.32361009158194,-0.229824092239141,5.32360715791583,
6.67,0.545999999999999,1,1,3,1,0.5,5.56594259105623,-0.223920159041882,5.56593965739012,
6.68,0.555999999999999,1,1,3,1,0.5,5.71985475718975,-0.218219184316695,5.71985185146332,
6.69,0.566,1,1,3,1,0.5,5.78351343981922,-0.212793159298599,5.78351050615311,
6.7,0.576,1,1,3,1,0.5,5.8331336081028,-0.20820336882025,5.83313070237636,
6.71,0.585999999999999,1,1,3,1,0.5,5.93298037536442,-0.203584916889668,5.93297744169831,
6.72,0.595999999999999,1,1,3,1,0.5,6.08588316477835,-0.198891898617148,6.08588023111224,
6.73,0.606,1,1,3,1,0.5,6.25035113655031,-0.193588426336646,6.2503482028842,
6.74,0.616,1,1,3,1,0.5,6.38653102330863,-0.188737600110471,6.38652814552188,
6.75,0.625999999999999,1,1,3,1,0.5,6.48833859711885,-0.183856077492237,6.48833569139242,
6.76,0.635999999999999,1,1,3,1,0.5,6.58399064093828,-0.179173802025616,6.58398773521185,
6.77,0.646,1,1,3,1,0.5,6.6987781226635,-0.174317816272378,6.69877521693707,
6.78,0.656,1,1,3,1,0.5,6.83594794012606,-0.169342015869915,6.83594506233931,
6.79,0.665999999999999,1,1,3,1,0.5,6.97619355283678,-0.164785101078451,6.97619061917067,
6.8,0.675999999999999,1,1,3,1,0.5,7.10168508812785,-0.15980345197022,7.10168218240142,
6.81,0.686,1,1,3,1,0.5,7.21306792460382,-0.154804843477905,7.21306499093771,
6.82,0.696,1,1,3,1,0.5,7.32515542767942,-0.150381587445736,7.32515249401331,
6.83,0.706,1,1,3,1,0.5,7.44509995914996,-0.145701393485069,7.4450970813632,
6.84,0.715999999999999,1,1,3,1,0.5,7.57130049169064,-0.140826627612114,7.5712975859642,
6.85,0.726,1,1,3,1,0.5,7.70061043091118,-0.136177004314959,7.70060749724507,
6.86,0.736,1,1,3,1,0.5,7.82490869052708,-0.131142176687717,7.82490575686097,
6.87,0.746,1,1,3,1,0.5,7.94148040004075,-0.126548893749714,7.94147752225399,
6.884,0.76,1,1,3,1,0.75,8.10303281061351,-0.120061784982681,8.10302993282676,
6.894,0.77,1,1,3,1,0.75,8.22313947603107,-0.115220872685313,8.22313657030463,
6.904,0.779999999999999,1,1,3,1,0.75,8.34840148687363,-0.110369953326881,8.34839858114719,
6.914,0.789999999999999,1,1,3,1,0.75,8.47238824702799,-0.105651058256626,8.47238531336188,
6.924,0.8,1,1,3,1,0.75,8.58785477466881,-0.100758550688624,8.5878518410027,
6.934,0.81,1,1,3,1,0.75,8.70348170399666,-0.096049914136529,8.70347879827023,
6.944,0.819999999999999,1,1,3,1,0.75,8.82318743504584,-0.0912498403340578,8.82318455725908,
6.954,0.829999999999999,1,1,3,1,0.75,8.94583465531468,-0.0868068682029843,8.94583174958825,
6.964,0.84,1,1,3,1,0.75,9.06565220095217,-0.0815049838274717,9.06564926728606,
6.974,0.85,1,1,3,1,0.75,9.18367794714868,-0.0768904481083155,9.18367501348257,
6.984,0.859999999999999,1,1,3,1,0.75,9.30286184884608,-0.0719020795077086,9.30285897105932,
6.994,0.869999999999999,1,1,3,1,0.75,9.42354219965637,-0.0672498578205705,9.42353932186961,
7.004,0.88,1,1,3,1,0.75,9.54358527436852,-0.062286383472383,9.54358236864209,
7.014,0.89,1,1,3,1,0.75,9.66245253570378,-0.0574526749551296,9.66244960203767,
7.024,0.899999999999999,1,1,3,1,0.75,9.78395179845393,-0.0526122329756618,9.78394886478782,
7.034,0.909999999999999,1,1,3,1,0.75,9.9061867967248,-0.047879102639854,9.90618389099836,
7.044,0.92,1,1,3,1,0.75,10.0266873277724,-0.0429088016971946,10.0266844220459,
7.054,0.93,1,1,3,1,0.75,10.1464401930571,-0.0380413793027401,10.1464372873306,
7.064,0.94,1,1,3,1,0.75,10.2671062108129,-0.0332985352724791,10.2671032771468,
7.074,0.949999999999999,1,1,3,1,0.75,10.3904403280467,-0.0287572760134935,10.3904373943806,
7.084,0.96,1,1,3,1,0.75,10.51408611238,-0.0243579503148794,10.5140832066536,
7.094,0.97,1,1,3,1,0.75,10.6336592137814,-0.019665053114295,10.6336563080549,
7.104,0.98,1,1,3,1,0.75,10.7528196740895,-0.0157464388757944,10.7528167963028,
7.114,0.989999999999999,1,1,3,1,0.75,10.8722674101591,-0.0118739018216729,10.8722645044327,
7.124,1,1,1,3,1,1,10.9897590056062,-0.00843978486955166,10.9897560998797,
7.138,0.0139999999999993,2,2,3,1,1,11.1262997053564,-0.0117811700329185,11.1262967996299,
7.14,0.016,2,2,3,1,1,11.1289982032031,-0.0117847556248307,11.128995269537,
7.15,0.0259999999999998,2,2,3,1,1,11.0551826935261,-0.016290289349854,11.05517975986,
7.16,0.0359999999999996,2,2,3,1,1,10.8364563155919,-0.0211039837449789,10.8364533819258,
7.17,0.0459999999999994,2,2,3,1,1,10.5983504466712,-0.0281002139672637,10.5983475409448,
7.18,0.0559999999999992,2,2,3,1,1,10.4482694528997,-0.0350316148251295,10.4482665471733,
7.19,0.0659999999999998,2,2,3,1,1,10.3870807774365,-0.0403547799214721,10.3870778717101,
7.2,0.0759999999999996,2,2,3,1,1,10.3383789025247,-0.0451536709442735,10.3383759967983,
7.21,0.0859999999999994,2,2,3,1,1,10.2351924218237,-0.0506409257650375,10.2351895160973,
7.22,0.0959999999999992,2,2,3,1,1,10.0757835712284,-0.0563808111473918,10.0757806934416,
7.23,0.106,2,2,3,1,1,9.90686109289527,-0.0624727690592408,9.90685818716884,
7.24,0.116,2,2,3,1,1,9.77530321106315,-0.0681142089888453,9.77530030533671,
7.25,0.125999999999999,2,2,3,1,1,9.68182811513543,-0.0736451055854559,9.681825209409,
7.26,0.135999999999999,2,2,3,1,1,9.58990599028766,-0.0781585229560733,9.58990305662155,
7.27,0.146,2,2,3,1,1,9.47461067698896,-0.0836116075515747,9.47460774332285,
7.28,0.156,2,2,3,1,1,9.33885379694402,-0.0889038294553757,9.33885086327791,
7.29,0.165999999999999,2,2,3,1,1,9.20056371018291,-0.0943761877715588,9.20056080445647,
7.3,0.175999999999999,2,2,3,1,1,9.07789980992675,-0.0993397226557136,9.07789690420032,
7.31,0.186,2,2,3,1,1,8.96890084259212,-0.104716238565743,8.96889790892601,
7.32,0.196,2,2,3,1,1,8.85925901122391,-0.109571730718017,8.8592560775578,
7.33,0.206,2,2,3,1,1,8.74124645255506,-0.114371101371944,8.74124351888895,
7.34,0.215999999999999,2,2,3,1,1,8.61327057704329,-0.119425682350993,8.61326767131686,
7.35,0.226,2,2,3,1,1,8.48614848218858,-0.124110500328243,8.48614554852247,
7.36,0.236,2,2,3,1,1,8.36673268117011,-0.129252439364791,8.366729747504,
7.37,0.246,2,2,3,1,1,8.25162498280406,-0.133704072795808,8.25162207707763,
7.384,0.26,2,2,3,1,1.25,8.0839120130986,-0.140270171687007,8.08390907943249,
7.394,0.27,2,2,3,1,1.25,7.95803222805262,-0.145222437568009,7.95802932232618,
7.404,0.279999999999999,2,2,3,1,1.25,7.83158984966576,-0.149760209023952,7.83158697187901,
7.414,0.29,2,2,3,1,1.25,7.7098055742681,-0.154442824423313,7.70980266854167,
7.424,0.3,2,2,3,1,1.25,7.59159615263343,-0.159183833748102,7.591593246907,
7.434,0.31,2,2,3,1,1.25,7.47087383642793,-0.163905122317374,7.47087093070149,
7.444,0.319999999999999,2,2,3,1,1.25,7.34799318015575,-0.16784134786576,7.34799027442932,
7.454,0.329999999999999,2,2,3,1,1.25,7.22722618840635,-0.172242545522749,7.22722325474024,
7.464,0.34,2,2,3,1,1.25,7.10669626481831,-0.176653992384672,7.1066933311522,
7.474,0.35,2,2,3,1,1.25,6.98454866185784,-0.180929731577635,6.98454575613141,
7.484,0.359999999999999,2,2,3,1,1.25,6.86337073333561,-0.184928770177066,6.8633677996695,
7.494,0.369999999999999,2,2,3,1,1.25,6.74397876486182,-0.189253464341164,6.74397585913539,
7.504,0.38,2,2,3,1,1.25,6.62375846877694,-0.193446204066277,6.62375556305051,
7.514,0.39,2,2,3,1,1.25,6.50284384377301,-0.197253827936947,6.5028409101069,
7.524,0.399999999999999,2,2,3,1,1.25,6.38440548442304,-0.201319442130625,6.38440255075693,
7.534,0.409999999999999,2,2,3,1,1.25,6.26825018785894,-0.205245199613273,6.26824731007218,
7.544,0.42,2,2,3,1,1.25,6.14768383093178,-0.209556706249714,6.14768089726567,
7.554,0.43,2,2,3,1,1.25,6.02233786135912,-0.213123140856624,6.02233495563269,
7.564,0.44,2,2,3,1,1.25,5.90026969090104,-0.216888426803052,5.90026678517461,
7.574,0.449999999999999,2,2,3,1,1.25,5.78419662080705,-0.220875907689333,5.78419368714094,
7.584,0.46,2,2,3,1,1.25,5.66713241860271,-0.22481991443783,5.66712951287627,
7.594,0.47,2,2,3,1,1.25,5.54425497539341,-0.228384709917009,5.54425209760666,
7.604,0.48,2,2,3,1,1.25,5.42060726322234,-0.231414097361267,5.42060432955623,
7.614,0.489999999999999,2,2,3,1,1.25,5.30261102132499,-0.23586611263454,5.30260808765888,
7.624,0.5,2,2,3,1,1.5,5.18121424131095,-0.239387922920287,5.18121130764484,
7.629,0.505,2,2,3,1,1.5,5.12014316394925,-0.240439036861062,5.12014025822282,
7.639,0.515,2,2,3,1,1.5,5.04265612922609,-0.235783974640071,5.04265319555998,
7.64,0.516,2,2,3,1,1.5,5.04249304533005,-0.236156624741852,5.04249013960361,
7.65,0.526,2,2,3,1,1.5,5.12043228372931,-0.230726241134107,5.12042937800288,
7.66,0.536,2,2,3,1,1.5,5.33688177354634,-0.225262711755931,5.33687883988023,
7.67,0.545999999999999,2,2,3,1,1.5,5.57333174161613,-0.219671698287129,5.57332880795002,
7.68,0.555999999999999,2,2,3,1,1.5,5.72295796126127,-0.21365282125771,5.72295505553484,
7.69,0.566,2,2,3,1,1.5,5.78714861534536,-0.208508279174566,5.78714568167925,
7.7,0.576,2,2,3,1,1.5,5.83825184963643,-0.204042289406061,5.83824891597033,
7.71,0.585999999999999,2,2,3,1,1.5,5.94025667756796,-0.199578301981091,5.94025377184153,
7.72,0.595999999999999,2,2,3,1,1.5,6.09566456638276,-0.194649156183004,6.09566163271666,
7.73,0.606,2,2,3,1,1.5,6.26009833998978,-0.189659516327083,6.26009540632367,
7.74,0.616,2,2,3,1,1.5,6.39326278120279,-0.184483896009624,6.39325987547636,
7.75,0.625999999999999,2,2,3,1,1.5,6.4910049084574,-0.179640194401145,6.49100203067064,
7.76,0.635999999999999,2,2,3,1,1.5,6.58569035120308,-0.175207168795168,6.58568741753697,
7.77,0.646,2,2,3,1,1.5,6.70211755670607,-0.169960614293814,6.70211462303996,
7.78,0.656,2,2,3,1,1.5,6.84019236825407,-0.165562103502452,6.84018949046731,
7.79,0.665999999999999,2,2,3,1,1.5,6.97778868488967,-0.160640124231577,6.97778575122356,
7.8,0.675999999999999,2,2,3,1,1.5,7.10183825343847,-0.156067158095539,7.10183534771204,
7.81,0.686,2,2,3,1,1.5,7.21455431543291,-0.151151195168495,7.2145513817668,
7.82,0.696,2,2,3,1,1.5,7.32674011029303,-0.146722360514104,7.32673717662692,
7.83,0.706,2,2,3,1,1.5,7.44585550390184,-0.141771933995187,7.44585257023573,
7.84,0.715999999999999,2,2,3,1,1.5,7.57338372990489,-0.136963212862611,7.57338082417846,
7.85,0.726,2,2,3,1,1.5,7.70274139009416,-0.132101434282959,7.70273845642805,
7.86,0.736,2,2,3,1,1.5,7.82726101577282,-0.12736854609102,7.82725811004639,
7.87,0.746,2,2,3,1,1.5,7.94266141019762,-0.122726764529943,7.94265853241086,
7.884,0.76,2,2,3,1,1.75,8.10464934445917,-0.116064748726785,8.10464646667242,
7.894,0.77,2,2,3,1,1.75,8.22668977081775,-0.111314388923347,8.22668686509132,
7.904,0.779999999999999,2,2,3,1,1.75,8.35218599997461,-0.106612574309111,8.3521830663085,
7.914,0.79,2,2,3,1,1.75,8.47358353435993,-0.101943416520953,8.4735806286335,
7.924,0.8,2,2,3,1,1.75,8.58843561261892,-0.0970807671546936,8.58843270689249,
7.934,0.81,2,2,3,1,1.75,8.70317338965833,-0.0923440465703607,8.70317045599222,
7.944,0.819999999999999,2,2,3,1,1.75,8.82178941741586,-0.0876825302839279,8.82178651168942,
7.954,0.829999999999999,2,2,3,1,1.75,8.94488023594022,-0.0830923160538077,8.94487733021379,
7.964,0.84,2,2,3,1,1.75,9.06645954586565,-0.0781623413786292,9.06645661219954,
7.974,0.85,2,2,3,1,1.75,9.18594382703304,-0.0732660572975874,9.18594092130661,
7.984,0.859999999999999,2,2,3,1,1.75,9.30366726592183,-0.0682358490303159,9.3036643601954,
7.994,0.869999999999999,2,2,3,1,1.75,9.42388398572802,-0.0635855132713914,9.42388108000159,
8.004,0.879999999999999,2,2,3,1,1.75,9.5433440990746,-0.0591018004342914,9.54334119334817,
8.014,0.889999999999999,2,2,3,1,1.75,9.66279373504221,-0.0540125463157892,9.6627908013761,
8.024,0.9,2,2,3,1,1.75,9.78439768776298,-0.0489625008776784,9.78439478203654,
8.034,0.91,2,2,3,1,1.75,9.90693409927189,-0.0445230724290013,9.90693116560578,
8.044,0.92,2,2,3,1,1.75,10.0263167358935,-0.0395774189382792,10.0263138301671,
8.054,0.93,2,2,3,1,1.75,10.1447409018874,-0.0347891310229898,10.144737996161,
8.064,0.94,2,2,3,1,1.75,10.2677514497191,-0.0299808522686362,10.267748516053,
8.074,0.949999999999999,2,2,3,1,1.75,10.3934934642166,-0.0256475433707237,10.3934905305505,
8.084,0.959999999999999,2,2,3,1,1.75,10.5158931668848,-0.0214100023731589,10.5158902332187,
8.094,0.969999999999999,2,2,3,1,1.75,10.6324369087815,-0.0171087961643934,10.6324340030551,
8.104,0.98,2,2,3,1,1.75,10.7516965549439,-0.0128626683726907,10.7516936212778,
8.114,0.99,2,2,3,1,1.75,10.8741264324635,-0.00989316031336784,10.8741234987974,
8.124,1,2,2,3,1,2,10.9940479695797,-0.00649802386760712,10.9940450638533,
8.138,0.0139999999999993,3,3,3,1,2,11.1289975047112,-0.0104034505784512,11.1289945989847,
8.14,0.016,3,3,3,1,2,11.1309063713998,-0.0102061219513416,11.1309034377336,
8.15,0.0259999999999998,3,3,3,1,2,11.051884861663,-0.0146210007369518,11.0518819279969,
8.16,0.0359999999999996,3,3,3,1,2,10.8292677160352,-0.0188294565305114,10.8292647823691,
8.17,0.0459999999999994,3,3,3,1,2,10.5907165724784,-0.0255964836105704,10.5907136946917,
8.18,0.0559999999999992,3,3,3,1,2,10.4430039413273,-0.0322840036824346,10.4430010356009,
8.19,0.0659999999999989,3,3,3,1,2,10.3857010044158,-0.0375807750970125,10.3856980986893,
8.2,0.0759999999999987,3,3,3,1,2,10.3380613680929,-0.0426062569022179,10.3380584344268,
8.21,0.0860000000000003,3,3,3,1,2,10.2336072642356,-0.0476595899090171,10.2336043305695,
8.22,0.0960000000000001,3,3,3,1,2,10.0727831572294,-0.0539856078103185,10.072780251503,
8.23,0.106,3,3,3,1,2,9.90246173925698,-0.059651336632669,9.90245880559087,
8.24,0.116,3,3,3,1,2,9.77085443213582,-0.0655770441517234,9.77085152640939,
8.25,0.125999999999999,3,3,3,1,2,9.67810853384435,-0.070718158967793,9.6781056560576,
8.26,0.135999999999999,3,3,3,1,2,9.5885075815022,-0.0759104965254664,9.58850467577577,
8.27,0.145999999999999,3,3,3,1,2,9.47439978830516,-0.0807409873232245,9.47439685463905,
8.28,0.155999999999999,3,3,3,1,2,9.33997825719416,-0.0863925274461508,9.33997532352805,
8.29,0.166,3,3,3,1,2,9.201191207394,-0.0914608826860785,9.20118827372789,
8.3,0.176,3,3,3,1,2,9.07559568062425,-0.0967038841918111,9.07559277489781,
8.31,0.186,3,3,3,1,2,8.96604442968965,-0.102149578742683,8.96604152396321,
8.32,0.196,3,3,3,1,2,8.85817710310221,-0.106618660502136,8.85817419737577,
8.33,0.206,3,3,3,1,2,8.74150833114982,-0.11169274803251,8.74150542542338,
8.34,0.215999999999999,3,3,3,1,2,8.61416520550847,-0.116683281958103,8.61416229978204,
8.35,0.225999999999999,3,3,3,1,2,8.48515114746988,-0.121470377780497,8.48514821380377,
8.36,0.235999999999999,3,3,3,1,2,8.36618257686496,-0.126427435316145,8.36617967113853,
8.37,0.246,3,3,3,1,2,8.25149461627006,-0.131571618840098,8.25149171054363,
8.384,0.26,3,3,3,1,2.25,8.08408685959876,-0.137979895807803,8.08408392593265,
8.394,0.27,3,3,3,1,2.25,7.95928878709674,-0.14254042878747,7.95928588137031,
8.404,0.279999999999999,3,3,3,1,2.25,7.83511452376843,-0.147482291795313,7.83511161804199,
8.414,0.289999999999999,3,3,3,1,2.25,7.71260915324092,-0.151718021370471,7.71260624751449,
8.424,0.299999999999999,3,3,3,1,2.25,7.59378159418702,-0.156644736416638,7.59377868846059,
8.434,0.310000000000001,3,3,3,1,2.25,7.47172985225916,-0.161103345453739,7.47172694653273,
8.444,0.32,3,3,3,1,2.25,7.34738546423614,-0.165424006991088,7.34738253057003,
8.454,0.33,3,3,3,1,2.25,7.22694114781916,-0.169793670065701,7.22693821415305,
8.464,0.34,3,3,3,1,2.25,7.10961976088583,-0.174318752251565,7.10961682721972,
8.474,0.35,3,3,3,1,2.25,6.98940921574831,-0.178445153869689,6.98940631002188,
8.484,0.359999999999999,3,3,3,1,2.25,6.8673200905323,-0.182436495088041,6.86731718480587,
