"Total Time (s)","Cycle Elapsed Time (s)","Total Cycles","Elapsed Cycles","Step","Loop 1","Total Cycle Count(Linear Waveform)","Position(Linear:Position) (mm)","Force(Linear:Load) (kN)","Displacement(Linear:Digital Position) (mm)",
6.135,0,1,1,3,1,0,11.2149348668754,-0.0199997238814831,11.2149320729077,
6.146,0.0110000000000001,1,1,3,1,0,11.2148481421173,-0.0201274501159787,11.2148452922702,
6.156,0.0209999999999999,1,1,3,1,0,11.2138209678233,-0.0202235672622919,11.2138181179762,
6.166,0.0310000000000006,1,1,3,1,0,11.2083261832595,-0.021040360443294,11.2083233334124,
6.176,0.0410000000000004,1,1,3,1,0,11.190853016451,-0.0229391921311617,11.1908501945436,
6.186,0.0510000000000002,1,1,3,1,0,11.1553035490215,-0.0257702171802521,11.1553006991744,
6.196,0.0609999999999999,1,1,3,1,0,11.098745148629,-0.0298388581722975,11.0987423546612,
6.206,0.0710000000000006,1,1,3,1,0,11.0225305147469,-0.0350876897573471,11.0225277207792,
6.216,0.0810000000000004,1,1,3,1,0,10.9350211825222,-0.040820986032486,10.9350183606148,
6.226,0.0910000000000002,1,1,3,1,0,10.8419697359204,-0.0470639253035188,10.8419668860733,
6.236,0.101,1,1,3,1,0,10.7415102235973,-0.0535536929965019,10.7415074296296,
6.246,0.111000000000001,1,1,3,1,0,10.6299865990877,-0.061257747001946,10.6299837492406,
6.256,0.121,1,1,3,1,0,10.50272539258,-0.0694758072495461,10.502722542733,
6.266,0.131,1,1,3,1,0,10.3584297280759,-0.0790084293112159,10.3584269061685,
6.276,0.141,1,1,3,1,0,10.1999878697097,-0.089014433324337,10.199985075742,
6.286,0.151000000000001,1,1,3,1,0,10.0275963172317,-0.100153083913028,10.0275934673846,
6.296,0.161,1,1,3,1,0,9.84646956436336,-0.111113972961903,9.84646674245596,
6.306,0.171,1,1,3,1,0,9.66090336441994,-0.122364116832614,9.66090051457286,
6.316,0.181,1,1,3,1,0,9.46262681856751,-0.134746870025992,9.46262396872044,
6.326,0.191000000000001,1,1,3,1,0,9.25148949958384,-0.147086619399488,9.25148667767644,
6.335,0.2,1,1,3,1,0,9.05141978524625,-0.158653454855084,9.05141696333885,
6.345,0.21,1,1,3,1,0,8.82048119790852,-0.170515016652644,8.82047837600112,
6.355,0.220000000000001,1,1,3,1,0,8.61252643167973,-0.179789620451629,8.612523637712,
6.365,0.23,1,1,3,1,0,8.45238969661295,-0.186064098961651,8.45238687470555,
6.375,0.24,1,1,3,1,0,8.33577244542539,-0.190283628180623,8.33576962351799,
6.385,0.25,1,1,3,1,0.25,8.24114729650319,-0.193904954940081,8.24114447459579,
6.395,0.260000000000001,1,1,3,1,0.25,8.14930935390294,-0.197363118641078,8.14930653199553,
6.405,0.27,1,1,3,1,0.25,8.04869608953595,-0.201207655481994,8.04869323968887,
6.415,0.28,1,1,3,1,0.25,7.93992483057082,-0.206107604317367,7.93992200866342,
6.425,0.29,1,1,3,1,0.25,7.82276479527354,-0.211552521213889,7.82276194542646,
6.435,0.300000000000001,1,1,3,1,0.25,7.69976455718279,-0.216950667090714,7.69976176321506,
6.445,0.310000000000001,1,1,3,1,0.25,7.57339867763221,-0.222341357730329,7.57339585572481,
6.455,0.32,1,1,3,1,0.25,7.44613288901746,-0.22785659879446,7.44613006711006,
6.465,0.33,1,1,3,1,0.25,7.32166514731944,-0.232852189801633,7.32166232541204,
6.475,0.340000000000001,1,1,3,1,0.25,7.20054776407778,-0.238502561114728,7.20054494217038,
6.485,0.350000000000001,1,1,3,1,0.25,7.07942202687263,-0.243609077297151,7.07941923290491,
6.495,0.36,1,1,3,1,0.25,6.95713880471885,-0.248203682713211,6.95713598281145,
6.505,0.37,1,1,3,1,0.25,6.83786801062524,-0.25269940495491,6.83786518871784,
6.515,0.380000000000001,1,1,3,1,0.25,6.72135072760284,-0.257345391437411,6.72134790569544,
6.525,0.390000000000001,1,1,3,1,0.25,6.60351977683604,-0.262016230262816,6.60351695492864,
6.535,0.4,1,1,3,1,0.25,6.48481582291424,-0.266501782462001,6.48481300100684,
6.545,0.41,1,1,3,1,0.25,6.36534844525158,-0.271446858532727,6.36534562334418,
6.555,0.42,1,1,3,1,0.25,6.24658475629985,-0.275914683006704,6.24658193439245,
6.565,0.430000000000001,1,1,3,1,0.25,6.12604784779251,-0.280217295512557,6.12604502588511,
6.575,0.44,1,1,3,1,0.25,6.00556855089962,-0.284889177419245,6.00556572899222,
6.585,0.45,1,1,3,1,0.25,5.88603883981705,-0.289148706942797,5.88603598996997,
6.595,0.46,1,1,3,1,0.25,5.76717562973499,-0.293843965046108,5.76717277988791,
6.605,0.470000000000001,1,1,3,1,0.25,5.6471713911742,-0.297710341401398,5.6471685692668,
6.615,0.48,1,1,3,1,0.25,5.52644108422101,-0.302460151724517,5.5264382623136,
6.625,0.49,1,1,3,1,0.25,5.40555107407272,-0.306694572791457,5.40554825216532,
6.635,0.5,1,1,3,1,0.5,5.28586300089955,-0.310868248343468,5.28586020693183,
6.64,0.505000000000001,1,1,3,1,0.5,5.22547845728695,-0.312497029080987,5.22547563537955,
6.65,0.515000000000001,1,1,3,1,0.5,5.13382008299232,-0.310461930930614,5.13381728902459,
6.655,0.52,1,1,3,1,0.5,5.12343057431281,-0.309158242307603,5.12342775240541,
6.665,0.53,1,1,3,1,0.5,5.16145586036146,-0.301321069709957,5.16145303845406,
6.675,0.54,1,1,3,1,0.5,5.29117274098098,-0.290597858838737,5.29116991907358,
6.685,0.550000000000001,1,1,3,1,0.5,5.47996507957578,-0.278009120374918,5.4799622297287,
6.695,0.560000000000001,1,1,3,1,0.5,5.6817214563489,-0.265911458991468,5.68171866238117,
6.705,0.57,1,1,3,1,0.5,5.86977057158947,-0.254232762381434,5.86976772174239,
6.715,0.58,1,1,3,1,0.5,6.0333589464426,-0.244672987610102,6.03335609659552,
6.725,0.590000000000001,1,1,3,1,0.5,6.17409015074372,-0.236711907200515,6.174087356776,
6.735,0.600000000000001,1,1,3,1,0.5,6.3018602784723,-0.229677748866379,6.3018574565649,
6.745,0.61,1,1,3,1,0.5,6.42408753745258,-0.222930465824902,6.42408471554518,
6.755,0.62,1,1,3,1,0.5,6.54376002028584,-0.215969923883677,6.54375722631812,
6.765,0.630000000000001,1,1,3,1,0.5,6.66655532084405,-0.209090239368379,6.66655249893665,
6.775,0.640000000000001,1,1,3,1,0.5,6.7921984847635,-0.202343338169158,6.7921956628561,
6.785,0.65,1,1,3,1,0.5,6.91695679910481,-0.195644875057042,6.91695397719741,
6.795,0.66,1,1,3,1,0.5,7.04169410280883,-0.188797735609114,7.04169128090143,
6.805,0.67,1,1,3,1,0.5,7.16487935744226,-0.182932806201279,7.16487653553486,
6.815,0.680000000000001,1,1,3,1,0.5,7.28780533187091,-0.176408006809652,7.28780250996351,
6.825,0.69,1,1,3,1,0.5,7.41236784495413,-0.170048358850181,7.41236502304673,
6.835,0.7,1,1,3,1,0.5,7.53569193184376,-0.163780278526247,7.53568908199668,
6.845,0.71,1,1,3,1,0.5,7.65562931075692,-0.157520323991776,7.6556265167892,
6.855,0.720000000000001,1,1,3,1,0.5,7.77535152621567,-0.151424505747855,7.77534870430827,
6.865,0.73,1,1,3,1,0.5,7.89565681479871,-0.145664815790951,7.89565399289131,
6.875,0.74,1,1,3,1,0.5,8.01558254286647,-0.139934010803699,8.01557969301939,
6.885,0.75,1,1,3,1,0.75,8.13477999530733,-0.13355462346226,8.13477717339993,
6.895,0.760000000000001,1,1,3,1,0.75,8.25107778422534,-0.127703766338527,8.25107496231794,
6.905,0.77,1,1,3,1,0.75,8.36823837831616,-0.122207929380238,8.36823558434844,
6.915,0.78,1,1,3,1,0.75,8.48683213815093,-0.116451061330736,8.48682928830385,
6.925,0.79,1,1,3,1,0.75,8.60580266453326,-0.110958069562912,8.60579984262585,
6.935,0.800000000000001,1,1,3,1,0.75,8.72587963007391,-0.105112609453499,8.7258768081665,
6.945,0.810000000000001,1,1,3,1,0.75,8.84593027643859,-0.0994120957329869,8.84592745453119,
6.955,0.82,1,1,3,1,0.75,8.96558507345617,-0.0934897316619754,8.96558225154877,
6.965,0.83,1,1,3,1,0.75,9.08532159402967,-0.0882287276908755,9.08531874418258,
6.975,0.840000000000001,1,1,3,1,0.75,9.20393144711852,-0.082695996388793,9.2039286531508,
6.985,0.850000000000001,1,1,3,1,0.75,9.3247140571475,-0.0768662756308913,9.32471126317978,
6.995,0.86,1,1,3,1,0.75,9.44503960199654,-0.0715274969115853,9.44503678008914,
7.005,0.87,1,1,3,1,0.75,9.56495155580342,-0.0657213525846601,9.56494873389602,
7.015,0.880000000000001,1,1,3,1,0.75,9.68567593954504,-0.0600642152130604,9.68567311763763,
7.025,0.890000000000001,1,1,3,1,0.75,9.80647221207619,-0.0543467374518514,9.80646941810846,
7.035,0.9,1,1,3,1,0.75,9.92840412072837,-0.0487505132332444,9.92840129882097,
7.045,0.91,1,1,3,1,0.75,10.0479072332382,-0.0434919586405158,10.0479044392705,
7.055,0.92,1,1,3,1,0.75,10.1696034427732,-0.0375721603631973,10.1696006208658,
7.065,0.930000000000001,1,1,3,1,0.75,10.2943470049649,-0.0320288212969899,10.2943441830575,
7.075,0.94,1,1,3,1,0.75,10.41952050291,-0.0264579802751541,10.4195176810026,
7.085,0.95,1,1,3,1,0.75,10.5422397516668,-0.0211440026760101,10.5422369576991,
7.095,0.96,1,1,3,1,0.75,10.6624377518892,-0.0158363534137607,10.6624349579215,
7.105,0.970000000000001,1,1,3,1,0.75,10.7842727098614,-0.0113575207069516,10.784269887954,
7.115,0.98,1,1,3,1,0.75,10.9039868228137,-0.00727726612240076,10.9039839729667,
7.125,0.99,1,1,3,1,0.75,11.0225900821388,-0.0042352918535471,11.0225872881711,
7.135,1,1,1,3,1,1,11.1441750638187,-0.0022026663646102,11.144172269851,
7.145,0.0100000000000007,2,2,3,1,1,11.2718928884715,-0.00493696425110102,11.2718900665641,
7.155,0.0200000000000005,2,2,3,1,1,11.3318875059485,-0.00698323361575603,11.3318847119808,
7.165,0.0300000000000002,2,2,3,1,1,11.2841335963458,-0.00779310241341591,11.2841307744384,
7.175,0.04,2,2,3,1,1,11.1230788193643,-0.0100041460245848,11.1230760253966,
7.185,0.0500000000000007,2,2,3,1,1,10.898735364899,-0.0216677971184254,10.8987325429916,
7.195,0.0600000000000005,2,2,3,1,1,10.6863051373512,-0.0351439975202084,10.6863023154438,
7.205,0.0700000000000003,2,2,3,1,1,10.509082255885,-0.0470207212492824,10.5090794339776,
7.215,0.0800000000000001,2,2,3,1,1,10.3631322272122,-0.0562126189470291,10.3631294332445,
7.225,0.0900000000000007,2,2,3,1,1,10.2374349161983,-0.0643795263022184,10.2374321222305,
7.235,0.100000000000001,2,2,3,1,1,10.1167260389775,-0.0718923145905137,10.1167232170701,
7.245,0.11,2,2,3,1,1,9.99573430046439,-0.0793279800564051,9.99573145061731,
7.255,0.12,2,2,3,1,1,9.87391118891537,-0.0864073121920228,9.87390836700797,
7.265,0.130000000000001,2,2,3,1,1,9.75384157150984,-0.0935041951015592,9.75383872166276,
7.275,0.140000000000001,2,2,3,1,1,9.63356344029307,-0.10057870298624,9.633560590446,
7.285,0.15,2,2,3,1,1,9.51419622637331,-0.107442396692932,9.51419340446591,
7.295,0.16,2,2,3,1,1,9.39383570104837,-0.11381100397557,9.39383285120129,
7.305,0.17,2,2,3,1,1,9.27476953715086,-0.121022039093077,9.27476668730378,
7.315,0.180000000000001,2,2,3,1,1,9.15691933594644,-0.127374492585659,9.15691651403904,
7.325,0.19,2,2,3,1,1,9.03787569142878,-0.134001267142594,9.03787286952138,
7.335,0.2,2,2,3,1,1,8.91831647604704,-0.140499267727137,8.91831368207932,
7.345,0.21,2,2,3,1,1,8.79747080616653,-0.146785276010633,8.79746798425913,
7.355,0.220000000000001,2,2,3,1,1,8.67712165229023,-0.15321028418839,8.67711883038282,
7.365,0.23,2,2,3,1,1,8.55551669374108,-0.159302339889109,8.555513843894,
7.375,0.24,2,2,3,1,1,8.43409965746105,-0.165755893103778,8.43409683555365,
7.385,0.25,2,2,3,1,1.25,8.31282751634717,-0.171843343414366,8.31282466650009,
7.395,0.260000000000001,2,2,3,1,1.25,8.19197664968669,-0.178009262308478,8.19197382777929,
7.405,0.27,2,2,3,1,1.25,8.07068752124906,-0.184017838910222,8.07068467140198,
7.415,0.28,2,2,3,1,1.25,7.9498415440321,-0.189920160919428,7.94983869418502,
7.425,0.29,2,2,3,1,1.25,7.82800829038024,-0.195875810459256,7.82800549641252,
7.435,0.300000000000001,2,2,3,1,1.25,7.70490470342338,-0.201673456467688,7.70490188151598,
7.445,0.310000000000001,2,2,3,1,1.25,7.57974204607308,-0.208073030225933,7.57973922416568,
7.455,0.32,2,2,3,1,1.25,7.45310626924038,-0.213321917690337,7.45310347527266,
7.465,0.33,2,2,3,1,1.25,7.33035139739513,-0.21921927575022,7.33034854754805,
7.475,0.340000000000001,2,2,3,1,1.25,7.20897191204131,-0.22481715772301,7.20896909013391,
7.485,0.350000000000001,2,2,3,1,1.25,7.08760410547256,-0.230101048946381,7.08760131150484,
7.495,0.36,2,2,3,1,1.25,6.96607863530517,-0.235096127726138,6.96607584133744,
7.505,0.37,2,2,3,1,1.25,6.84546835720539,-0.239689159207046,6.84546556323767,
7.515,0.380000000000001,2,2,3,1,1.25,6.73069744370878,-0.245046098716557,6.73069462180138,
7.525,0.390000000000001,2,2,3,1,1.25,6.6139423660934,-0.249665924347937,6.61393951624632,
7.535,0.4,2,2,3,1,1.25,6.49617883376777,-0.254766549915075,6.49617601186037,
7.545,0.41,2,2,3,1,1.25,6.37619331479072,-0.259563005529344,6.37619046494365,
7.555,0.42,2,2,3,1,1.25,6.25644852407277,-0.264749052003026,6.25644570216537,
7.565,0.430000000000001,2,2,3,1,1.25,6.13531121984124,-0.269542150199413,6.13530836999416,
7.575,0.44,2,2,3,1,1.25,6.01478302851319,-0.274540791288018,6.01478023454547,
7.585,0.45,2,2,3,1,1.25,5.89351988397539,-0.279576983302832,5.89351706206799,
7.595,0.46,2,2,3,1,1.25,5.77220072038472,-0.284539782442153,5.77219789847732,
7.605,0.470000000000001,2,2,3,1,1.25,5.65211956389248,-0.28881037607789,5.65211674198508,
7.615,0.48,2,2,3,1,1.25,5.53281359374523,-0.293750297278166,5.53281079977751,
7.625,0.49,2,2,3,1,1.25,5.41231233626604,-0.297897718846798,5.41230948641896,
7.635,0.5,2,2,3,1,1.5,5.29052741825581,-0.302674300037324,5.29052462428808,
7.641,0.506,2,2,3,1,1.5,5.21661484614015,-0.304380529560149,5.21661199629307,
7.651,0.516,2,2,3,1,1.5,5.13076918199658,-0.302027901634574,5.1307663321495,
7.654,0.519,2,2,3,1,1.5,5.12482093647122,-0.300973602570593,5.12481808662415,
7.664,0.529000000000001,2,2,3,1,1.5,5.15741159208119,-0.29442235827446,5.15740877017379,
7.674,0.539000000000001,2,2,3,1,1.5,5.28350363485515,-0.284581575542688,5.28350081294775,
7.684,0.549,2,2,3,1,1.5,5.46836653724313,-0.271642017178237,5.4683637432754,
7.694,0.559,2,2,3,1,1.5,5.66871983930469,-0.258975047618151,5.66871698945761,
7.704,0.569,2,2,3,1,1.5,5.85753606632352,-0.24787925183773,5.85753321647644,
7.714,0.579000000000001,2,2,3,1,1.5,6.02099390700459,-0.238127545453608,6.02099111303687,
7.724,0.589,2,2,3,1,1.5,6.16159591823816,-0.230491515249014,6.16159306839108,
7.734,0.599,2,2,3,1,1.5,6.29010069184005,-0.223352829925716,6.29009786993265,
7.744,0.609,2,2,3,1,1.5,6.41189879737794,-0.216477741487324,6.41189597547054,
7.754,0.619000000000001,2,2,3,1,1.5,6.53201616369188,-0.209591393359005,6.53201334178448,
7.764,0.629,2,2,3,1,1.5,6.65451874025166,-0.202785674482584,6.65451591834426,
7.774,0.639,2,2,3,1,1.5,6.77932170219719,-0.196424042806029,6.77931888028979,
7.784,0.649,2,2,3,1,1.5,6.90544375218451,-0.189713430590928,6.90544093027711,
7.794,0.659000000000001,2,2,3,1,1.5,7.02904734760523,-0.183257451280952,7.0290445536375,
7.804,0.669,2,2,3,1,1.5,7.15305665507913,-0.176595090888441,7.15305380523205,
7.814,0.679,2,2,3,1,1.5,7.27728906087577,-0.170182809233665,7.27728623896837,
7.824,0.689,2,2,3,1,1.5,7.40033162757754,-0.16364183742553,7.40032877773046,
7.834,0.699000000000001,2,2,3,1,1.5,7.5237101688981,-0.157668418250978,7.52370737493038,
7.844,0.709000000000001,2,2,3,1,1.5,7.64312647283077,-0.151491686701775,7.64312367886305,
7.854,0.719,2,2,3,1,1.5,7.7646522782743,-0.145672336220741,7.76464942842722,
7.864,0.729,2,2,3,1,1.5,7.88442285731435,-0.139895221218467,7.88442000746727,
7.874,0.739000000000001,2,2,3,1,1.5,8.00358960404992,-0.133761335164309,8.00358675420284,
7.884,0.749000000000001,2,2,3,1,1.5,8.12186144292355,-0.128091676160693,8.12185859307647,
7.895,0.760000000000001,2,2,3,1,1.75,8.25149562209844,-0.121906180866063,8.25149282813072,
7.905,0.77,2,2,3,1,1.75,8.36901146918535,-0.115817203186452,8.36900867521763,
7.915,0.78,2,2,3,1,1.75,8.48614496178925,-0.110189635306597,8.48614213988185,
7.925,0.79,2,2,3,1,1.75,8.60622907988727,-0.104872421361506,8.60622625797987,
7.935,0.800000000000001,2,2,3,1,1.75,8.725361879915,-0.0990614388138056,8.72535908594728,
7.945,0.810000000000001,2,2,3,1,1.75,8.84585724212229,-0.0931762950494885,8.84585442021489,
7.955,0.82,2,2,3,1,1.75,8.96598234772682,-0.0875956797972322,8.96597949787974,
7.965,0.83,2,2,3,1,1.75,9.08521226607263,-0.0823663361370564,9.08520944416523,
7.975,0.840000000000001,2,2,3,1,1.75,9.20547880232334,-0.0766922859475017,9.20547600835562,
7.985,0.850000000000001,2,2,3,1,1.75,9.32568395510316,-0.0711218267679214,9.32568110525608,
7.995,0.86,2,2,3,1,1.75,9.44521939381957,-0.0653261318802834,9.44521659985185,
8.005,0.870000000000001,2,2,3,1,1.75,9.56519113853574,-0.0602125842124224,9.56518828868866,
8.015,0.880000000000001,2,2,3,1,1.75,9.68550721183419,-0.0546131748706102,9.68550436198711,
8.025,0.890000000000001,2,2,3,1,1.75,9.80786170810461,-0.0488255126401782,9.80785891413689,
8.035,0.9,2,2,3,1,1.75,9.93009282276034,-0.043553626164794,9.93008997291327,
8.045,0.91,2,2,3,1,1.75,10.0492364354432,-0.0379141187295318,10.0492336414754,
8.055,0.92,2,2,3,1,1.75,10.1714797038585,-0.0323686376214027,10.1714768819511,
8.065,0.93,2,2,3,1,1.75,10.2959289494902,-0.0267935683950782,10.2959261275828,
8.075,0.94,2,2,3,1,1.75,10.4204097110778,-0.0214873859658837,10.4204068891704,
8.085,0.950000000000001,2,2,3,1,1.75,10.5420345626771,-0.0166124431416392,10.5420317128301,
8.095,0.960000000000001,2,2,3,1,1.75,10.6625486444682,-0.0117427995428443,10.6625458225608,
8.105,0.970000000000001,2,2,3,1,1.75,10.7845509052277,-0.00760804396122694,10.7845480553806,
8.115,0.98,2,2,3,1,1.75,10.9070180542767,-0.00418364070355892,10.9070152044296,
8.125,0.99,2,2,3,1,1.75,11.0294716246426,-0.00293812248855829,11.0294688306749,
8.134,0.999000000000001,2,2,3,1,1.75,11.1425960808992,-0.00199379865080118,11.1425932310522,
8.135,1,2,2,3,1,2,11.1555815767497,-0.00202388968318701,11.1555787548423,
8.137,0.00200000000000067,3,3,3,1,2,11.1818297300488,-0.00189164653420448,11.1818269081414,
8.147,0.0120000000000005,3,3,3,1,2,11.302686855197,-0.00593140721321106,11.3026840053499,
8.154,0.0190000000000001,3,3,3,1,2,11.3354040496051,-0.00705679878592491,11.3354012556374,
8.164,0.0289999999999999,3,3,3,1,2,11.2899305205792,-0.00724147073924541,11.2899276986718,
8.174,0.0389999999999997,3,3,3,1,2,11.1297848727554,-0.00741299241781235,11.129782050848,
8.184,0.0490000000000013,3,3,3,1,2,10.8975926600397,-0.0161054031923413,10.8975898660719,
8.194,0.0590000000000011,3,3,3,1,2,10.6769971456379,-0.0299813086166978,10.6769943237305,
8.204,0.0690000000000008,3,3,3,1,2,10.4964926093817,-0.0417235912755132,10.4964897595346,
8.214,0.0790000000000006,3,3,3,1,2,10.3541633952409,-0.050955917686224,10.3541605733335,
8.224,0.0890000000000004,3,3,3,1,2,10.2337212022394,-0.0585493538528681,10.233718380332,
8.234,0.0990000000000002,3,3,3,1,2,10.1177597790956,-0.0657097296789289,10.1177569292486,
8.244,0.109,3,3,3,1,2,10.0004056468606,-0.0732654752209783,10.0004028528929,
8.254,0.119,3,3,3,1,2,9.88267206586897,-0.0803892686963081,9.88266924396157,
8.264,0.129,3,3,3,1,2,9.7636775393039,-0.0873525906354189,9.7636747173965,
8.274,0.139000000000001,3,3,3,1,2,9.64393372647464,-0.0945892045274377,9.64393090456724,
8.284,0.149000000000001,3,3,3,1,2,9.52270369045436,-0.101449270732701,9.52270086854696,
8.294,0.159000000000001,3,3,3,1,2,9.4008273538202,-0.10880465619266,9.4008245319128,
8.304,0.169,3,3,3,1,2,9.28124494850635,-0.115371253341436,9.28124209865928,
8.314,0.179,3,3,3,1,2,9.16294899769127,-0.122151798568666,9.16294617578387,
8.324,0.189,3,3,3,1,2,9.04416737146676,-0.128381876274943,9.04416454955935,
8.334,0.199,3,3,3,1,2,8.92486869357526,-0.134887886233628,8.92486587166786,
8.344,0.209,3,3,3,1,2,8.80611606873572,-0.14138194732368,8.80611324682832,
8.354,0.219000000000001,3,3,3,1,2,8.68622054345906,-0.147738764062524,8.68621772155166,
8.364,0.229000000000001,3,3,3,1,2,8.56487983837724,-0.154070076532662,8.56487704440951,
8.374,0.239000000000001,3,3,3,1,2,8.4436178393662,-0.16036169603467,8.44361498951912,
8.384,0.249000000000001,3,3,3,1,2,8.32342534326017,-0.166346002370119,8.32342252135277,
8.395,0.26,3,3,3,1,2.25,8.19277103058994,-0.172910541296005,8.19276820868254,
8.405,0.27,3,3,3,1,2.25,8.07006837800145,-0.178735950030386,8.07006552815437,
8.415,0.280000000000001,3,3,3,1,2.25,7.94899061322212,-0.185331348329782,7.9489878192544,
8.425,0.290000000000001,3,3,3,1,2.25,7.82627991400659,-0.190938948653638,7.82627709209919,
8.435,0.300000000000001,3,3,3,1,2.25,7.70438069477677,-0.197246866300702,7.7043778449297,
8.445,0.310000000000001,3,3,3,1,2.25,7.57980577647686,-0.203064987435937,7.57980292662978,
8.455,0.32,3,3,3,1,2.25,7.45610285550356,-0.209033256396651,7.45610006153583,
8.465,0.33,3,3,3,1,2.25,7.33360340818763,-0.214197696186602,7.33360055834055,
