"Total Time (s)","Cycle Elapsed Time (s)","Total Cycles","Elapsed Cycles","Step","Loop 1","Total Cycle Count(Linear Waveform)","Position(Linear:Position) (mm)","Force(Linear:Load) (kN)","Displacement(Linear:Digital Position) (mm)",
998.132,0,993,993,3,1,992,11.0709860175848,-0.00251642893999815,11.0709831677377,
998.142,0.00999999999999091,993,993,3,1,992,11.1761654075235,-0.00513127539306879,11.1761625856161,
998.15,0.0179999999999154,993,993,3,1,992,11.214873790741,-0.00681876204907894,11.2148709967732,
998.16,0.0279999999999063,993,993,3,1,992,11.176508590579,-0.00696611125022173,11.176505740732,
998.17,0.0380000000000109,993,993,3,1,992,11.0309157148004,-0.00576444901525974,11.0309128649533,
998.18,0.0480000000000018,993,993,3,1,992,10.8067275490612,-0.00326188281178474,10.8067247271538,
998.19,0.0579999999999927,993,993,3,1,992,10.5607530009001,-0.00200150534510612,10.5607501789927,
998.2,0.0679999999999836,993,993,3,1,992,10.3370248060673,-0.00578159466385841,10.3370219841599,
998.21,0.0779999999999745,993,993,3,1,992,10.1741656847298,-0.0153135787695646,10.1741628348827,
998.22,0.0879999999999654,993,993,3,1,992,10.0670058466494,-0.0225580716505647,10.0670030526817,
998.23,0.0979999999999563,993,993,3,1,992,9.9869058933109,-0.0276567367836833,9.9869030714035,
998.24,0.107999999999947,993,993,3,1,992,9.91076848469674,-0.0330237997695804,9.91076566278934,
998.25,0.117999999999938,993,993,3,1,992,9.82460469938814,-0.0386243686079979,9.82460187748075,
998.26,0.127999999999929,993,993,3,1,992,9.7239473182708,-0.0452455691993237,9.7239444963634,
998.27,0.13799999999992,993,993,3,1,992,9.61100120097399,-0.0520926108583808,9.61099840700626,
998.28,0.147999999999911,993,993,3,1,992,9.49002675712108,-0.0594528997316957,9.49002396315336,
998.29,0.158000000000015,993,993,3,1,992,9.36716107651591,-0.0669406866654754,9.36715822666883,
998.3,0.168000000000006,993,993,3,1,992,9.24679384566844,-0.0733542535454035,9.24679102376103,
998.31,0.177999999999997,993,993,3,1,992,9.12990764714777,-0.080645652487874,9.12990482524037,
998.32,0.187999999999988,993,993,3,1,992,9.01261263526976,-0.0870311399921775,9.01260981336236,
998.33,0.197999999999979,993,993,3,1,992,8.89607319608331,-0.0940434914082289,8.89607040211558,
998.34,0.20799999999997,993,993,3,1,992,8.77894828096032,-0.100370994769037,8.77894543111324,
998.35,0.217999999999961,993,993,3,1,992,8.66157132200897,-0.106659950688481,8.66156850010157,
998.36,0.227999999999952,993,993,3,1,992,8.54358748532831,-0.113189360126853,8.54358466342092,
998.37,0.237999999999943,993,993,3,1,992,8.42587762512266,-0.119169340468943,8.42587480321527,
998.38,0.247999999999934,993,993,3,1,992,8.31121939234436,-0.12558039277792,8.31121657043695,
998.392,0.259999999999991,993,993,3,1,992.25,8.17293050698936,-0.132745704613626,8.17292768508196,
998.402,0.269999999999982,993,993,3,1,992.25,8.05534045211971,-0.138754742220044,8.05533763021231,
998.412,0.279999999999973,993,993,3,1,992.25,7.93679201044142,-0.144936353899539,7.93678918853402,
998.422,0.289999999999964,993,993,3,1,992.25,7.81837929971516,-0.150837427936494,7.81837647780776,
998.432,0.299999999999955,993,993,3,1,992.25,7.69972706213593,-0.157155273482203,7.69972421228886,
998.442,0.309999999999945,993,993,3,1,992.25,7.58065832778811,-0.162979941815138,7.58065547794104,
998.452,0.319999999999936,993,993,3,1,992.25,7.46045887470245,-0.168763920664787,7.46045602485538,
998.462,0.329999999999927,993,993,3,1,992.25,7.34235336072743,-0.174223552457988,7.34235053882003,
998.472,0.339999999999918,993,993,3,1,992.25,7.22729402594268,-0.180265866219997,7.22729120403528,
998.482,0.349999999999909,993,993,3,1,992.25,7.10882498882711,-0.185542027465999,7.10882216691971,
998.492,0.360000000000014,993,993,3,1,992.25,6.99145459569991,-0.190754900686443,6.99145177379251,
998.502,0.370000000000005,993,993,3,1,992.25,6.87797446735203,-0.196426245383918,6.87797164544463,
998.512,0.379999999999995,993,993,3,1,992.25,6.76604334264994,-0.201150025241077,6.76604049280286,
998.522,0.389999999999986,993,993,3,1,992.25,6.65437018498778,-0.206486210227013,6.65436733514071,
998.532,0.399999999999977,993,993,3,1,992.25,6.53973489068449,-0.211443905718625,6.53973206877708,
998.542,0.409999999999968,993,993,3,1,992.25,6.42255876213312,-0.216811439022422,6.4225559681654,
998.552,0.419999999999959,993,993,3,1,992.25,6.30760788917541,-0.222147218883038,6.30760509520769,
998.562,0.42999999999995,993,993,3,1,992.25,6.19073364883661,-0.226925662718713,6.19073079898953,
998.572,0.439999999999941,993,993,3,1,992.25,6.07289110310376,-0.232622139155865,6.07288828119636,
998.582,0.449999999999932,993,993,3,1,992.25,5.95459694042802,-0.237463265657425,5.95459409058094,
998.592,0.459999999999923,993,993,3,1,992.25,5.83847584202886,-0.242466647177935,5.83847299218178,
998.602,0.469999999999914,993,993,3,1,992.25,5.72580154985189,-0.247163139283657,5.72579870000482,
998.612,0.479999999999905,993,993,3,1,992.25,5.61289871111512,-0.251782014966011,5.61289586126804,
998.622,0.490000000000009,993,993,3,1,992.25,5.4944483935833,-0.256430841982365,5.49444554373622,
998.632,0.5,993,993,3,1,992.5,5.37666452117264,-0.261688367463648,5.37666169926524,
998.64,0.507999999999925,993,993,3,1,992.5,5.28269425034523,-0.263798837549984,5.28269140049815,
998.65,0.517999999999915,993,993,3,1,992.5,5.21536926738918,-0.261301090940833,5.21536644548178,
998.651,0.519000000000005,993,993,3,1,992.5,5.21463995799422,-0.261568571440876,5.21463710814714,
998.661,0.528999999999996,993,993,3,1,992.5,5.24760581552982,-0.256011113524437,5.24760296568274,
998.671,0.538999999999987,993,993,3,1,992.5,5.36733599379659,-0.246668639592826,5.36733314394951,
998.681,0.548999999999978,993,993,3,1,992.5,5.54298925213516,-0.235258112661541,5.54298643022776,
998.691,0.558999999999969,993,993,3,1,992.5,5.73427448049188,-0.22356194909662,5.73427168652415,
998.701,0.56899999999996,993,993,3,1,992.5,5.91431049630046,-0.212752041406929,5.91430770233274,
998.711,0.578999999999951,993,993,3,1,992.5,6.07350518926978,-0.203634211793542,6.0735023394227,
998.721,0.588999999999942,993,993,3,1,992.5,6.20947024784982,-0.195557279512286,6.20946742594242,
998.731,0.598999999999933,993,993,3,1,992.5,6.33461602963507,-0.18875427544117,6.33461320772767,
998.741,0.608999999999924,993,993,3,1,992.5,6.45468098111451,-0.181963620707393,6.4546781592071,
998.751,0.618999999999915,993,993,3,1,992.5,6.57170129008591,-0.17544521484524,6.57169846817851,
998.761,0.628999999999905,993,993,3,1,992.5,6.68823796324432,-0.16880486626178,6.68823514133692,
998.771,0.63900000000001,993,993,3,1,992.5,6.80798300541937,-0.162203465588391,6.80798018351197,
998.781,0.649000000000001,993,993,3,1,992.5,6.92625537514687,-0.156214982271194,6.92625258117914,
998.791,0.658999999999992,993,993,3,1,992.5,7.04237672500312,-0.149605954065919,7.04237390309572,
998.801,0.668999999999983,993,993,3,1,992.5,7.1593165397644,-0.142970494925976,7.15931374579668,
998.811,0.678999999999974,993,993,3,1,992.5,7.27857308462262,-0.136888879351318,7.2785702906549,
998.821,0.688999999999965,993,993,3,1,992.5,7.399220187217,-0.130613725632429,7.39921733736992,
998.831,0.698999999999955,993,993,3,1,992.5,7.51985041424632,-0.12430006172508,7.5198476202786,
998.841,0.708999999999946,993,993,3,1,992.5,7.63636945746839,-0.117912874557078,7.63636663556099,
998.851,0.718999999999937,993,993,3,1,992.5,7.75322886183858,-0.111778285354376,7.75322606787086,
998.861,0.728999999999928,993,993,3,1,992.5,7.87093930877745,-0.1062231650576,7.87093648687005,
998.871,0.738999999999919,993,993,3,1,992.5,7.98566621728242,-0.100180432200432,7.98566339537501,
998.881,0.74899999999991,993,993,3,1,992.5,8.10020470060408,-0.0939082773402333,8.10020187869668,
998.892,0.759999999999991,993,993,3,1,992.75,8.22563901543617,-0.088128843344748,8.22563622146845,
998.902,0.769999999999982,993,993,3,1,992.75,8.33896103315055,-0.0823482917621732,8.33895821124315,
998.912,0.779999999999973,993,993,3,1,992.75,8.45391939394176,-0.076506189070642,8.45391657203436,
998.922,0.789999999999964,993,993,3,1,992.75,8.56635809876025,-0.0710413092747331,8.56635527685285,
998.932,0.799999999999955,993,993,3,1,992.75,8.68085565045476,-0.0651958864182234,8.68085280060768,
998.942,0.809999999999945,993,993,3,1,992.75,8.79802331328392,-0.059635853394866,8.79802046343684,
998.952,0.819999999999936,993,993,3,1,992.75,8.91501956619322,-0.0539819337427616,8.91501674428582,
998.962,0.829999999999927,993,993,3,1,992.75,9.03070245869458,-0.0485588284209371,9.03069963678718,
998.972,0.839999999999918,993,993,3,1,992.75,9.14674820378423,-0.0433867564424872,9.14674535393715,
998.982,0.849999999999909,993,993,3,1,992.75,9.26328370347619,-0.0374877126887441,9.26328085362911,
998.992,0.860000000000014,993,993,3,1,992.75,9.38110328279436,-0.0325625948607922,9.38110046088696,
999.002,0.870000000000005,993,993,3,1,992.75,9.49652326293289,-0.0273658242076635,9.4965204410255,
999.012,0.879999999999995,993,993,3,1,992.75,9.61335936561227,-0.0223763845860958,9.61335657164454,
999.022,0.889999999999986,993,993,3,1,992.75,9.73365481942892,-0.0173648027703166,9.73365196958184,
999.032,0.899999999999977,993,993,3,1,992.75,9.85380124300718,-0.0129828182980418,9.85379844903946,
999.042,0.909999999999968,993,993,3,1,992.75,9.97249131090939,-0.00873423647135496,9.97248848900199,
999.052,0.919999999999959,993,993,3,1,992.75,10.089046144858,-0.00475799199193716,10.0890433229506,
999.062,0.92999999999995,993,993,3,1,992.75,10.2104712557048,-0.00291634816676378,10.2104684337974,
999.072,0.939999999999941,993,993,3,1,992.75,10.3375317156315,-0.00232390128076077,10.3375288657844,
999.082,0.949999999999932,993,993,3,1,992.75,10.4686440713704,-0.00266035553067923,10.4686412215233,
999.092,0.959999999999923,993,993,3,1,992.75,10.5987899657339,-0.00265469308942556,10.5987871438265,
999.102,0.969999999999914,993,993,3,1,992.75,10.7254209369421,-0.00290618278086185,10.725418087095,
999.112,0.979999999999905,993,993,3,1,992.75,10.8455739542842,-0.00284318346530199,10.8455711603165,
999.122,0.990000000000009,993,993,3,1,992.75,10.9600987751037,-0.00260280445218086,10.9600959531963,
999.132,1,993,993,3,1,993,11.0708920843899,-0.00250396784394979,11.0708892904222,
999.142,0.00999999999999091,994,994,3,1,993,11.1763344984502,-0.00519922468811274,11.1763316765428,
999.15,0.0179999999999154,994,994,3,1,993,11.2147749681026,-0.00703069381415844,11.2147721461952,
999.16,0.0279999999999063,994,994,3,1,993,11.176364114508,-0.00711972825229168,11.1763612926006,
999.17,0.0380000000000109,994,994,3,1,993,11.0311958380044,-0.00556736253201962,11.0311929881573,
999.18,0.0480000000000018,994,994,3,1,993,10.8066499885172,-0.0033976323902607,10.8066471666098,
999.19,0.0579999999999927,994,994,3,1,993,10.559267392382,-0.00185416545718908,10.5592645704746,
999.191,0.0589999999999691,994,994,3,1,993,10.5351814348251,-0.00175596680492163,10.5351786129177,
999.201,0.06899999999996,994,994,3,1,993,10.317257931456,-0.00682631507515907,10.3172551095486,
999.211,0.0789999999999509,994,994,3,1,993,10.1605064794421,-0.0159681867808104,10.160503629595,
999.221,0.0889999999999418,994,994,3,1,993,10.057812994346,-0.0233566295355558,10.0578101724386,
999.231,0.0989999999999327,994,994,3,1,993,9.97939232736826,-0.028301477432251,9.97938947752118,
999.241,0.108999999999924,994,994,3,1,993,9.90380401723087,-0.0335558596998453,9.90380119532347,
999.251,0.118999999999915,994,994,3,1,993,9.81630968861282,-0.0391449686139822,9.81630686670542,
999.261,0.128999999999905,994,994,3,1,993,9.71337634138763,-0.045690955594182,9.71337351948023,
999.271,0.13900000000001,994,994,3,1,993,9.59796471521258,-0.0529590668156743,9.59796192124486,
999.281,0.149000000000001,994,994,3,1,993,9.47672367095947,-0.0602431921288371,9.47672082111239,
999.291,0.158999999999992,994,994,3,1,993,9.35382932424545,-0.0673638470470905,9.35382653027773,
999.301,0.168999999999983,994,994,3,1,993,9.23614050261676,-0.0743455998599529,9.23613768070936,
999.311,0.178999999999974,994,994,3,1,993,9.1196677275002,-0.0812718458473682,9.11966487765312,
999.321,0.188999999999965,994,994,3,1,993,9.00147548876703,-0.0879319617524743,9.00147266685963,
999.331,0.198999999999955,994,994,3,1,993,8.88287278823555,-0.0942772347480059,8.88286996632814,
999.341,0.208999999999946,994,994,3,1,993,8.76502733677626,-0.101070292294025,8.76502448692918,
999.351,0.218999999999937,994,994,3,1,993,8.64850714802742,-0.107389925979078,8.6485043540597,
999.361,0.228999999999928,994,994,3,1,993,8.53183711878955,-0.113951470702887,8.53183429688215,
999.371,0.238999999999919,994,994,3,1,993,8.41487534344196,-0.119833340868354,8.41487254947424,
999.381,0.24899999999991,994,994,3,1,993,8.30067252740264,-0.126097486354411,8.30066973343492,
999.392,0.259999999999991,994,994,3,1,993.25,8.17312639206648,-0.132813793607056,8.1731235422194,
999.402,0.269999999999982,994,994,3,1,993.25,8.05522433482111,-0.138546372763813,8.0552215129137,
999.412,0.279999999999973,994,994,3,1,993.25,7.93895012699068,-0.14475011266768,7.93894730508327,
999.422,0.289999999999964,994,994,3,1,993.25,7.82168081961572,-0.150650888681412,7.82167799770832,
999.432,0.299999999999955,994,994,3,1,993.25,7.70395587198436,-0.156854512169957,7.70395305007696,
999.442,0.309999999999945,994,994,3,1,993.25,7.58334788493812,-0.162813481874764,7.58334506303072,
999.452,0.319999999999936,994,994,3,1,993.25,7.46072701178491,-0.168751864694059,7.46072418987751,
999.462,0.329999999999927,994,994,3,1,993.25,7.34083243645728,-0.174396415241063,7.34082961454987,
999.472,0.339999999999918,994,994,3,1,993.25,7.22302123904228,-0.180280758067966,7.2230183891952,
999.482,0.349999999999909,994,994,3,1,993.25,7.10632679052651,-0.185826593078673,7.10632396861911,
999.492,0.360000000000014,994,994,3,1,993.25,6.99105595238507,-0.190938231535256,6.99105313047767,
999.502,0.370000000000005,994,994,3,1,993.25,6.8757782690227,-0.196566004306078,6.87577547505498,
999.512,0.379999999999995,994,994,3,1,993.25,6.76241328008473,-0.201453608460724,6.76241045817733,
999.522,0.389999999999986,994,994,3,1,993.25,6.64891655556858,-0.206661922857165,6.64891373366117,
999.532,0.399999999999977,994,994,3,1,993.25,6.5354582760483,-0.211953157559037,6.5354554541409,
999.542,0.409999999999968,994,994,3,1,993.25,6.42248810268939,-0.216713054105639,6.42248528078198,
999.552,0.419999999999959,994,994,3,1,993.25,6.3111175596714,-0.221818764694035,6.31111470982432,
999.562,0.42999999999995,994,994,3,1,993.25,6.19515960104764,-0.227157222107053,6.19515677914023,
999.572,0.439999999999941,994,994,3,1,993.25,6.0773164127022,-0.232180668972433,6.0773135907948,
999.582,0.449999999999932,994,994,3,1,993.25,5.95939502120018,-0.237312763929367,5.95939222723246,
999.592,0.459999999999923,994,994,3,1,993.25,5.84184592589736,-0.242057177238166,5.84184307605028,
999.602,0.469999999999914,994,994,3,1,993.25,5.72608890943229,-0.247058439999819,5.72608608752489,
999.612,0.479999999999905,994,994,3,1,993.25,5.61082863248885,-0.2519620815292,5.61082581058145,
999.622,0.490000000000009,994,994,3,1,993.25,5.49416653811932,-0.256846598349512,5.49416368827224,
999.632,0.5,994,994,3,1,993.5,5.37633455358446,-0.261821481399238,5.37633173167706,
999.638,0.505999999999972,994,994,3,1,993.5,5.30390837229788,-0.264064110815525,5.30390555039048,
999.648,0.515999999999963,994,994,3,1,993.5,5.21766660735011,-0.262165339663625,5.21766375750303,
999.651,0.519000000000005,994,994,3,1,993.5,5.21164152771234,-0.261480691842735,5.21163867786527,
999.661,0.528999999999996,994,994,3,1,993.5,5.24583723396063,-0.256249974481761,5.2458344399929,
999.671,0.538999999999987,994,994,3,1,993.5,5.36828680895269,-0.246810815297067,5.36828398704529,
999.681,0.548999999999978,994,994,3,1,993.5,5.54560923948884,-0.235102297738194,5.54560638964176,
999.691,0.558999999999969,994,994,3,1,993.5,5.73468348942697,-0.223500244319439,5.73468066751957,
999.701,0.56899999999996,994,994,3,1,993.5,5.913164941594,-0.212971451692283,5.9131621196866,
999.711,0.578999999999951,994,994,3,1,993.5,6.07000264339149,-0.203646160662174,6.06999982148409,
999.721,0.588999999999942,994,994,3,1,993.5,6.21005801483989,-0.195941729471087,6.21005516499281,
999.731,0.598999999999933,994,994,3,1,993.5,6.33549017831683,-0.188729134388268,6.33548738434911,
999.741,0.608999999999924,994,994,3,1,993.5,6.45619746297598,-0.181897492147982,6.4561946131289,
999.751,0.618999999999915,994,994,3,1,993.5,6.57154086045921,-0.175246894359589,6.57153803855181,
999.761,0.628999999999905,994,994,3,1,993.5,6.68785345740616,-0.169012290425599,6.68785063549876,
999.771,0.63900000000001,994,994,3,1,993.5,6.80685510858893,-0.162399164400995,6.80685225874186,
999.781,0.649000000000001,994,994,3,1,993.5,6.92392707802355,-0.155953792855144,6.92392425611615,
999.791,0.658999999999992,994,994,3,1,993.5,7.0419417321682,-0.14952375087887,7.04193893820047,
999.801,0.668999999999983,994,994,3,1,993.5,7.1615182980895,-0.143184890039265,7.16151544824243,
999.811,0.678999999999974,994,994,3,1,993.5,7.2801429592073,-0.136834466829896,7.28014016523957,
999.821,0.688999999999965,994,994,3,1,993.5,7.40016625262797,-0.130288656800985,7.40016343072057,
999.831,0.698999999999955,994,994,3,1,993.5,7.51903865486383,-0.124085652641952,7.51903586089611,
999.841,0.708999999999946,994,994,3,1,993.5,7.63633919879794,-0.11801675427705,7.63633634895086,
999.851,0.718999999999937,994,994,3,1,993.5,7.7531904168427,-0.111931231804192,7.75318762287497,
999.861,0.728999999999928,994,994,3,1,993.5,7.870909916237,-0.10571654420346,7.8709070943296,
999.871,0.738999999999919,994,994,3,1,993.5,7.98640770837665,-0.0999391824007034,7.98640491440892,
999.881,0.74899999999991,994,994,3,1,993.5,8.10215969569981,-0.094099510461092,8.10215687379241,
999.892,0.759999999999991,994,994,3,1,993.75,8.22635125368834,-0.0876825023442507,8.22634840384126,
999.902,0.769999999999982,994,994,3,1,993.75,8.33982869982719,-0.082501950673759,8.33982584998012,
999.912,0.779999999999973,994,994,3,1,993.75,8.45245437696576,-0.0764541001990438,8.45245158299804,
999.922,0.789999999999964,994,994,3,1,993.75,8.56623524799943,-0.0709768943488598,8.56623245403171,
999.932,0.799999999999955,994,994,3,1,993.75,8.68158750236034,-0.0650346931070089,8.68158470839262,
999.942,0.809999999999945,994,994,3,1,993.75,8.79773718304932,-0.0595609238371253,8.79773436114192,
999.952,0.819999999999936,994,994,3,1,993.75,8.91338299959898,-0.0539596704766154,8.91338020563126,
999.962,0.829999999999927,994,994,3,1,993.75,9.03102239593863,-0.0485475594177842,9.03101954609156,
999.972,0.839999999999918,994,994,3,1,993.75,9.14720121771097,-0.0430564302951097,9.14719836786389,
999.982,0.849999999999909,994,994,3,1,993.75,9.26408356055617,-0.0375259853899479,9.26408076658845,
999.992,0.860000000000014,994,994,3,1,993.75,9.38079698011279,-0.032644527964294,9.38079413026571,
1000.002,0.870000000000005,994,994,3,1,993.75,9.49577174149454,-0.0273300986737013,9.49576891958714,
1000.012,0.879999999999995,994,994,3,1,993.75,9.61298726499081,-0.0225229561328888,9.61298441514373,
1000.022,0.889999999999986,994,994,3,1,993.75,9.73287203349173,-0.0175292976200581,9.73286921158433,
1000.032,0.899999999999977,994,994,3,1,993.75,9.85320677049458,-0.0128585565835238,9.85320394858718,
1000.042,0.909999999999968,994,994,3,1,993.75,9.97188834473491,-0.00866803340613842,9.97188549488783,
1000.052,0.919999999999959,994,994,3,1,993.75,10.0896786991507,-0.00456455629318953,10.0896758772433,
1000.062,0.92999999999995,994,994,3,1,993.75,10.2116231247783,-0.00287670642137527,10.2116203308105,
1000.072,0.939999999999941,994,994,3,1,993.75,10.3376087732613,-0.0022995937615633,10.3376059792936,
1000.082,0.949999999999932,994,994,3,1,993.75,10.4687460511923,-0.0023388396948576,10.4687432572246,
1000.092,0.959999999999923,994,994,3,1,993.75,10.5991762317717,-0.00269798561930656,10.599173437804,
1000.102,0.969999999999914,994,994,3,1,993.75,10.7254597172141,-0.00266233924776316,10.725456867367,
1000.112,0.979999999999905,994,994,3,1,993.75,10.8450391609222,-0.0026307487860322,10.8450363390148,
