"Total Time (s)","Cycle Elapsed Time (s)","Total Cycles","Elapsed Cycles","Step","Loop 1","Total Cycle Count(Linear Waveform)","Position(Linear:Position) (mm)","Force(Linear:Load) (kN)","Displacement(Linear:Digital Position) (mm)",
998.134,0,993,993,3,1,992,11.2249573878944,-4.4042244553566E-05,11.2221718579531,
998.144,0.00999999999999091,993,993,3,1,992,11.3656322658062,-0.00566932838410139,11.3635645061731,
998.15,0.0159999999999627,993,993,3,1,992,11.4009808190167,-0.0081277173012495,11.4011016860604,
998.16,0.0259999999999536,993,993,3,1,992,11.3260538689792,-0.00855104066431522,11.3261747360229,
998.17,0.0360000000000582,993,993,3,1,992,11.0841367207468,-0.00264689791947603,11.0842575877905,
998.18,0.0460000000000491,993,993,3,1,992,10.8044281136245,0.00383194070309401,10.8045489527285,
998.184,0.0499999999999545,993,993,3,1,992,10.7184032164514,0.00489086844027042,10.7185240834951,
998.194,0.0600000000000591,993,993,3,1,992,10.6037074606866,0.00270574353635311,10.6038282997906,
998.204,0.07000000000005,993,993,3,1,992,10.5861248541623,-0.00239839311689138,10.5864089168608,
998.214,0.0800000000000409,993,993,3,1,992,10.5496392957866,-0.00639843754470348,10.5512842163444,
998.224,0.0900000000000318,993,993,3,1,992,10.4260531906039,-0.0141926622018218,10.4293953068554,
998.234,0.100000000000023,993,993,3,1,992,10.2633520681411,-0.0411575008183718,10.2664037235081,
998.244,0.110000000000014,993,993,3,1,992,10.1498735882342,-0.0677188439294696,10.1499944552779,
998.254,0.120000000000005,993,993,3,1,992,10.0708307046443,-0.0867228768765926,10.0709515437484,
998.264,0.129999999999995,993,993,3,1,992,9.98393540270627,-0.108098671771586,9.98405624181032,
998.274,0.139999999999986,993,993,3,1,992,9.87677413970232,-0.133255054242909,9.87689500674605,
998.284,0.149999999999977,993,993,3,1,992,9.76016689091921,-0.16009034588933,9.76252924650907,
998.294,0.159999999999968,993,993,3,1,992,9.65046378783882,-0.184828643687069,9.65277325361967,
998.304,0.169999999999959,993,993,3,1,992,9.54233036376536,-0.209458228200674,9.54245120286941,
998.314,0.17999999999995,993,993,3,1,992,9.42963927984238,-0.234060427173972,9.4319567643106,
998.324,0.190000000000055,993,993,3,1,992,9.3187502771616,-0.258843223564327,9.32113084942102,
998.334,0.200000000000045,993,993,3,1,992,9.20433486811817,-0.283809923566878,9.20445570722222,
998.344,0.210000000000036,993,993,3,1,992,9.09154336899519,-0.308020822703838,9.09166423603892,
998.354,0.220000000000027,993,993,3,1,992,8.97594815120101,-0.332950740121305,8.97606901824474,
998.364,0.230000000000018,993,993,3,1,992,8.85778832249343,-0.357392961159348,8.86024201288819,
998.374,0.240000000000009,993,993,3,1,992,8.74235389754176,-0.382247837260365,8.74476911500096,
998.384,0.25,993,993,3,1,992.25,8.62785363569856,-0.406306125223637,8.62797450274229,
998.394,0.259999999999991,993,993,3,1,992.25,8.50668967701495,-0.431356024928391,8.506810516119,
998.404,0.269999999999982,993,993,3,1,992.25,8.38990746997297,-0.455297762528062,8.39002830907702,
998.414,0.279999999999973,993,993,3,1,992.25,8.27128046192229,-0.479067554697394,8.27140130102634,
998.424,0.289999999999964,993,993,3,1,992.25,8.15002217888832,-0.504124956205487,8.15014304593205,
998.434,0.299999999999955,993,993,3,1,992.25,8.02740368060768,-0.528817046433687,8.02998963743448,
998.444,0.310000000000059,993,993,3,1,992.25,7.90526158176363,-0.553708677180111,7.9078109934926,
998.454,0.32000000000005,993,993,3,1,992.25,7.78558161109686,-0.577182737179101,7.78570247814059,
998.464,0.330000000000041,993,993,3,1,992.25,7.66064833849669,-0.602265330962837,7.66076920554042,
998.474,0.340000000000032,993,993,3,1,992.25,7.5371615588665,-0.626981887035072,7.53976201638579,
998.484,0.350000000000023,993,993,3,1,992.25,7.41252877749503,-0.650977548211813,7.41513876244426,
998.494,0.360000000000014,993,993,3,1,992.25,7.29264554567635,-0.674371160566807,7.29276638478041,
998.504,0.370000000000005,993,993,3,1,992.25,7.1679228823632,-0.698292376473546,7.16804372146726,
998.514,0.379999999999995,993,993,3,1,992.25,7.04386468045413,-0.722307027317584,7.04646348953247,
998.524,0.389999999999986,993,993,3,1,992.25,6.92002261988819,-0.745793716050684,6.92264707759023,
998.534,0.399999999999977,993,993,3,1,992.25,6.79657313972712,-0.769160403870046,6.79915197193623,
998.544,0.409999999999968,993,993,3,1,992.25,6.67646393179893,-0.792434602044523,6.67658479884267,
998.554,0.419999999999959,993,993,3,1,992.25,6.54816035181284,-0.816609589383006,6.55079701915383,
998.564,0.42999999999995,993,993,3,1,992.25,6.42224505543709,-0.839647981338203,6.42484785988927,
998.574,0.440000000000055,993,993,3,1,992.25,6.29894340410829,-0.863367081619799,6.29906427115202,
998.584,0.450000000000045,993,993,3,1,992.25,6.17763446643949,-0.886090323328972,6.17775533348322,
998.594,0.460000000000036,993,993,3,1,992.25,6.05068417266011,-0.909742475487292,6.05329954996705,
998.604,0.470000000000027,993,993,3,1,992.25,5.9270734526217,-0.93262892216444,5.92719431966543,
998.614,0.480000000000018,993,993,3,1,992.25,5.79857370816171,-0.956347580067813,5.79869454726577,
998.624,0.490000000000009,993,993,3,1,992.25,5.67554147914052,-0.978542855009437,5.67566234618425,
998.634,0.5,993,993,3,1,992.5,5.54861747659743,-1.00158883724362,5.54873831570148,
998.644,0.509999999999991,993,993,3,1,992.5,5.4293398372829,-1.0174262477085,5.42946070432663,
998.645,0.510999999999967,993,993,3,1,992.5,5.41953158564866,-1.0174964973703,5.42116435244679,
998.65,0.515999999999963,993,993,3,1,992.5,5.39979290217161,-1.01393235847354,5.40002882480621,
998.651,0.517000000000053,993,993,3,1,992.5,5.3999284375459,-1.013074638322,5.39993735030293,
998.661,0.527000000000044,993,993,3,1,992.5,5.45396528206766,-0.984062203206122,5.45200679451227,
998.671,0.537000000000035,993,993,3,1,992.5,5.58445198461413,-0.94298557844013,5.58457285165787,
998.681,0.547000000000025,993,993,3,1,992.5,5.7135112490505,-0.907819736748934,5.7113853469491,
998.691,0.557000000000016,993,993,3,1,992.5,5.80931654199958,-0.881494702771306,5.80943740904331,
998.701,0.567000000000007,993,993,3,1,992.5,5.89528519660234,-0.85907073225826,5.89370151981711,
998.711,0.576999999999998,993,993,3,1,992.5,5.98708854988217,-0.835415101610124,5.98523380234837,
998.721,0.586999999999989,993,993,3,1,992.5,6.08794005587697,-0.809899363666773,6.0880609229207,
998.731,0.59699999999998,993,993,3,1,992.5,6.19970561005175,-0.783016108907759,6.1976264230907,
998.741,0.606999999999971,993,993,3,1,992.5,6.30899364128709,-0.757925952784717,6.306959297508,
998.751,0.616999999999962,993,993,3,1,992.5,6.41583876684308,-0.732843391597271,6.41383543610573,
998.761,0.626999999999953,993,993,3,1,992.5,6.52055603452027,-0.708729983307421,6.52067687362432,
998.771,0.637000000000057,993,993,3,1,992.5,6.63327628746629,-0.683605363592505,6.63114326074719,
998.781,0.647000000000048,993,993,3,1,992.5,6.74464034847915,-0.658574574626982,6.74476118758321,
998.791,0.657000000000039,993,993,3,1,992.5,6.86273247934878,-0.632802965119481,6.86051337048411,
998.801,0.66700000000003,993,993,3,1,992.5,6.97700240649283,-0.608614580705762,6.97485538199544,
998.811,0.677000000000021,993,993,3,1,992.5,7.09136042743921,-0.583768263459206,7.09148129448295,
998.821,0.687000000000012,993,993,3,1,992.5,7.20931012183428,-0.558729814365506,7.20943098887801,
998.831,0.697000000000003,993,993,3,1,992.5,7.32874740846455,-0.533326677978039,7.32886824756861,
998.841,0.706999999999994,993,993,3,1,992.5,7.44719434529543,-0.508988774381578,7.44731521233916,
998.851,0.716999999999985,993,993,3,1,992.5,7.56407805718482,-0.485583785921335,7.56183061748743,
998.861,0.726999999999975,993,993,3,1,992.5,7.68201112747192,-0.460645076818764,7.68213199451566,
998.871,0.736999999999966,993,993,3,1,992.5,7.80604175291955,-0.435671005398035,7.80373446643353,
998.881,0.746999999999957,993,993,3,1,992.5,7.9263158608228,-0.411579655483365,7.92407233268022,
998.894,0.759999999999991,993,993,3,1,992.75,8.08049686253071,-0.380696742795408,8.08061772957444,
998.904,0.769999999999982,993,993,3,1,992.75,8.20031762123108,-0.357087668962777,8.19800874218345,
998.914,0.779999999999973,993,993,3,1,992.75,8.32249014638364,-0.332756792195141,8.32017162814736,
998.924,0.789999999999964,993,993,3,1,992.75,8.44430632889271,-0.309412847273052,8.44203192740679,
998.934,0.799999999999955,993,993,3,1,992.75,8.56342297978699,-0.285522732883692,8.56115084141493,
998.944,0.810000000000059,993,993,3,1,992.75,8.68160770274699,-0.262452918104827,8.68172854185104,
998.954,0.82000000000005,993,993,3,1,992.75,8.80336529575288,-0.238928524777293,8.80348613485694,
998.964,0.830000000000041,993,993,3,1,992.75,8.92686213366687,-0.214827721938491,8.92698297277093,
998.974,0.840000000000032,993,993,3,1,992.75,9.05458252876997,-0.190260419622064,9.0547033958137,
998.984,0.850000000000023,993,993,3,1,992.75,9.18151351623237,-0.166876446455717,9.17911022901535,
998.994,0.860000000000014,993,993,3,1,992.75,9.30562720634043,-0.143608604557812,9.30329276248813,
999.004,0.870000000000005,993,993,3,1,992.75,9.42762200720608,-0.120918517932296,9.42529371008277,
999.014,0.879999999999995,993,993,3,1,992.75,9.55103687010705,-0.099101816304028,9.54865638166666,
999.024,0.889999999999986,993,993,3,1,992.75,9.67838480137288,-0.0761105678975582,9.6785056963563,
999.034,0.899999999999977,993,993,3,1,992.75,9.80691410601139,-0.0538176437839866,9.80447519570589,
999.044,0.909999999999968,993,993,3,1,992.75,9.9369231518358,-0.0333913788199425,9.93442140519619,
999.054,0.919999999999959,993,993,3,1,992.75,10.0682448875159,-0.0142229488119483,10.0657021254301,
999.064,0.92999999999995,993,993,3,1,992.75,10.2051745634526,-0.00273993704468012,10.2052954025567,
999.074,0.940000000000055,993,993,3,1,992.75,10.3647281136364,-0.000342912971973419,10.3615462034941,
999.084,0.950000000000045,993,993,3,1,992.75,10.5301772709936,-0.000884206965565681,10.5302981100976,
999.094,0.960000000000036,993,993,3,1,992.75,10.6978615745902,-0.00166787300258875,10.6979824416339,
999.104,0.970000000000027,993,993,3,1,992.75,10.8392237406224,-0.00155298504978418,10.8393445797265,
999.114,0.980000000000018,993,993,3,1,992.75,10.9621934406459,-0.00084645114839077,10.9623143076897,
999.124,0.990000000000009,993,993,3,1,992.75,11.0855325032026,-0.000325599685311317,11.085653398186,
999.134,1,993,993,3,1,993,11.2244188226759,-0.000223019160330296,11.2216672673821,
999.146,0.0120000000000573,994,994,3,1,993,11.381167229265,-0.00651551876217127,11.3812880963087,
999.15,0.0159999999999627,994,994,3,1,993,11.3999668043107,-0.00806521158665419,11.4000876434147,
999.167,0.0330000000000155,994,994,3,1,993,11.1633009742945,-0.0042437482625246,11.1688409373164,
999.177,0.0430000000000064,994,994,3,1,993,10.8775176107883,0.00247076619416475,10.8830481022596,
999.185,0.0510000000000446,994,994,3,1,993,10.701605854556,0.00490596052259207,10.70172669366,
999.195,0.0610000000000355,994,994,3,1,993,10.5999018531293,0.0020299106836319,10.6000226922333,
999.205,0.0710000000000264,994,994,3,1,993,10.5844191368669,-0.00277144368737936,10.5845400318503,
999.215,0.0810000000000173,994,994,3,1,993,10.5421928968281,-0.0065184710547328,10.5423137359321,
999.225,0.0910000000000082,994,994,3,1,993,10.4092397075146,-0.0161014636978507,10.4126459732652,
999.235,0.100999999999999,994,994,3,1,993,10.2524864953011,-0.0441072601824999,10.2526073344052,
999.245,0.11099999999999,994,994,3,1,993,10.1397699024528,-0.0702917668968439,10.1398907415569,
999.255,0.120999999999981,994,994,3,1,993,10.0630356743932,-0.0886072684079409,10.0631565414369,
999.265,0.130999999999972,994,994,3,1,993,9.97146598063409,-0.110898301936686,9.97362356632948,
999.275,0.140999999999963,994,994,3,1,993,9.86482162959874,-0.135826580226421,9.86494246870279,
999.285,0.150999999999954,994,994,3,1,993,9.75173762999475,-0.162109402008355,9.7518584690988,
999.295,0.161000000000058,994,994,3,1,993,9.64146958664059,-0.187184340320528,9.64159045368433,
999.305,0.171000000000049,994,994,3,1,993,9.53184599988162,-0.21152762696147,9.53196683898568,
999.315,0.18100000000004,994,994,3,1,993,9.42072646692395,-0.236369529739022,9.42084733396768,
999.325,0.191000000000031,994,994,3,1,993,9.30879143066704,-0.260968562215567,9.3089122697711,
999.335,0.201000000000022,994,994,3,1,993,9.19514514505863,-0.285915560089052,9.19526601210237,
999.345,0.211000000000013,994,994,3,1,993,9.07982862554491,-0.310877403244376,9.07994946464896,
999.355,0.221000000000004,994,994,3,1,993,8.96448894403875,-0.335493949241936,8.9646097831428,
999.365,0.230999999999995,994,994,3,1,993,8.8481926638633,-0.359935034066439,8.84831355884671,
999.375,0.240999999999985,994,994,3,1,993,8.73285270296037,-0.384108019061387,8.73297354206443,
999.394,0.259999999999991,994,994,3,1,993.25,8.50939552299678,-0.430890708230436,8.50951636210084,
999.404,0.269999999999982,994,994,3,1,993.25,8.38930740952492,-0.455549764446914,8.38942827656865,
999.414,0.279999999999973,994,994,3,1,993.25,8.2714098226279,-0.479284208267927,8.27153066173196,
999.424,0.289999999999964,994,994,3,1,993.25,8.15273640677333,-0.503716268576682,8.15285727381706,
999.434,0.299999999999955,994,994,3,1,993.25,8.02984801121056,-0.528546357527375,8.02996885031462,
999.444,0.310000000000059,994,994,3,1,993.25,7.90752301923931,-0.553138079121709,7.90764385834336,
999.454,0.32000000000005,994,994,3,1,993.25,7.7829575445503,-0.577615038491786,7.78307838365436,
999.464,0.330000000000041,994,994,3,1,993.25,7.6607542578131,-0.602028830908239,7.66087509691715,
999.474,0.340000000000032,994,994,3,1,993.25,7.5367696210742,-0.626240624114871,7.53940606489778,
999.484,0.350000000000023,994,994,3,1,993.25,7.41471377201378,-0.650498862378299,7.41483461111784,
999.494,0.360000000000014,994,994,3,1,993.25,7.29226076044142,-0.674582524225116,7.29238159954548,
999.504,0.370000000000005,994,994,3,1,993.25,7.1703933365643,-0.698011796921492,7.17051420360804,
999.514,0.379999999999995,994,994,3,1,993.25,7.0461193844676,-0.721889631822705,7.04624025151133,
999.524,0.389999999999986,994,994,3,1,993.25,6.92234116606414,-0.745447538793087,6.9224620051682,
999.534,0.399999999999977,994,994,3,1,993.25,6.79976860061288,-0.769028458744287,6.79988946765661,
999.544,0.409999999999968,994,994,3,1,993.25,6.6763867624104,-0.792374345473945,6.67650762945414,
999.554,0.419999999999959,994,994,3,1,993.25,6.5511642023921,-0.8163848426193,6.55128506943583,
999.564,0.42999999999995,994,994,3,1,993.25,6.42567160539329,-0.839698812924325,6.42579244449735,
999.574,0.440000000000055,994,994,3,1,993.25,6.30114778876305,-0.862883944064379,6.30126865580678,
999.584,0.450000000000045,994,994,3,1,993.25,6.17751069366932,-0.886335442773998,6.17763156071305,
999.594,0.460000000000036,994,994,3,1,993.25,6.05006533674896,-0.909949070774019,6.05018623173237,
999.604,0.470000000000027,994,994,3,1,993.25,5.92676410451531,-0.932428482919931,5.92688497155905,
999.614,0.480000000000018,994,994,3,1,993.25,5.80190154723823,-0.955710555426776,5.80202238634229,
999.624,0.490000000000009,994,994,3,1,993.25,5.67575197666883,-0.978285712189972,5.67587284371257,
999.634,0.5,994,994,3,1,993.5,5.54844925180078,-1.00177699234337,5.54857011884451,
999.644,0.509999999999991,994,994,3,1,993.5,5.42875103652477,-1.01730132941157,5.42887190356851,
999.646,0.512000000000057,994,994,3,1,993.5,5.41347309015691,-1.0175540857017,5.41359392926097,
999.65,0.515999999999963,994,994,3,1,993.5,5.39975062943995,-1.0140889743343,5.39987146854401,
999.66,0.525999999999954,994,994,3,1,993.5,5.44346882030368,-0.987654021009803,5.44170387089252,
999.67,0.536000000000058,994,994,3,1,993.5,5.56773888878524,-0.947864125482738,5.5678597278893,
999.68,0.546000000000049,994,994,3,1,993.5,5.7001764792949,-0.910498206503689,5.70029731839895,
999.69,0.55600000000004,994,994,3,1,993.5,5.80071039497852,-0.884013562463224,5.80083126202226,
999.7,0.566000000000031,994,994,3,1,993.5,5.88599818758667,-0.861570416018367,5.88611902669072,
999.71,0.576000000000022,994,994,3,1,993.5,5.97522902302444,-0.838343901559711,5.9753498621285,
999.72,0.586000000000013,994,994,3,1,993.5,6.07810855843127,-0.812389911152422,6.07822939753532,
999.73,0.596000000000004,994,994,3,1,993.5,6.18656708858907,-0.785938813351095,6.18668792769313,
999.74,0.605999999999995,994,994,3,1,993.5,6.29541954025626,-0.760144051164389,6.2955404073,
999.75,0.615999999999985,994,994,3,1,993.5,6.40287240967154,-0.735356137156487,6.40299327671528,
999.76,0.625999999999976,994,994,3,1,993.5,6.50906936265528,-0.711251585744321,6.50919020175934,
999.77,0.635999999999967,994,994,3,1,993.5,6.61988728679717,-0.68616712000221,6.62000812590122,
999.78,0.645999999999958,994,994,3,1,993.5,6.73354220576584,-0.66109218634665,6.7336630448699,
999.79,0.656000000000063,994,994,3,1,993.5,6.84760333970189,-0.635814541019499,6.84772420674562,
999.8,0.666000000000054,994,994,3,1,993.5,6.96262928657234,-0.611236002296209,6.96275012567639,
999.81,0.676000000000045,994,994,3,1,993.5,7.0775265712291,-0.586552564054728,7.07764741033316,
999.82,0.686000000000035,994,994,3,1,993.5,7.19508835114539,-0.561554376035929,7.19520919024944,
999.83,0.696000000000026,994,994,3,1,993.5,7.31447797268629,-0.536318938247859,7.31459883973002,
999.84,0.706000000000017,994,994,3,1,993.5,7.43257267400622,-0.511789694428444,7.43269354104996,
999.85,0.716000000000008,994,994,3,1,993.5,7.55054038949311,-0.487870187498629,7.55066122859716,
999.86,0.725999999999999,994,994,3,1,993.5,7.66988550312817,-0.462986254133284,7.67000634223223,
999.87,0.73599999999999,994,994,3,1,993.5,7.79181484133005,-0.438730739988387,7.79193570837379,
999.88,0.745999999999981,994,994,3,1,993.5,7.91200370527804,-0.414427113719285,7.91212454438209,
999.894,0.759999999999991,994,994,3,1,993.75,8.07815655134618,-0.381058901548386,8.07827739045024,
999.904,0.769999999999982,994,994,3,1,993.75,8.19821647368371,-0.357527793385088,8.19833731278777,
999.914,0.779999999999973,994,994,3,1,993.75,8.32078563049436,-0.332736801356077,8.32090649753809,
999.924,0.789999999999964,994,994,3,1,993.75,8.44176691956818,-0.309270797297359,8.44188775867224,
999.934,0.799999999999955,994,994,3,1,993.75,8.56032511219382,-0.285757663659751,8.56044597923755,
999.944,0.810000000000059,994,994,3,1,993.75,8.68097215890884,-0.262471167370677,8.68109302595258,
999.954,0.82000000000005,994,994,3,1,993.75,8.80659716203809,-0.238060252740979,8.80671802908182,
999.964,0.830000000000041,994,994,3,1,993.75,8.92767397686839,-0.214696670882404,8.92779484391212,
999.974,0.840000000000032,994,994,3,1,993.75,9.05448580160737,-0.190316550433636,9.0546066686511,
999.984,0.850000000000023,994,994,3,1,993.75,9.17870599776506,-0.166933038271964,9.1788268648088,
999.994,0.860000000000014,994,994,3,1,993.75,9.30336898192763,-0.144224199466407,9.30348984897137,
1000.004,0.870000000000005,994,994,3,1,993.75,9.42474838346243,-0.121428002603352,9.42486925050616,
1000.014,0.879999999999995,994,994,3,1,993.75,9.54863419756293,-0.0991349015384912,9.54875506460667,
1000.024,0.889999999999986,994,994,3,1,993.75,9.67541123740375,-0.0764360325410962,9.67553207650781,
1000.034,0.899999999999977,994,994,3,1,993.75,9.80524300597608,-0.0542633235454559,9.80536384508014,
1000.044,0.909999999999968,994,994,3,1,993.75,9.93463120423257,-0.0335047114640474,9.93475204333663,
1000.054,0.919999999999959,994,994,3,1,993.75,10.0650970079005,-0.0147216580808163,10.0652178749442,
1000.064,0.92999999999995,994,994,3,1,993.75,10.204513091594,-0.0027230940759182,10.2046339586377,
1000.074,0.940000000000055,994,994,3,1,993.75,10.3613022062927,-0.000561624765396118,10.3614230453968,
1000.084,0.950000000000045,994,994,3,1,993.75,10.5313875339925,-0.00096671748906374,10.5315084010363,
1000.094,0.960000000000036,994,994,3,1,993.75,10.6953063234687,-0.0017278827726841,10.6954271905124,
1000.104,0.970000000000027,994,994,3,1,993.75,10.8392987307161,-0.00141330529004335,10.8368179388344,
1000.114,0.980000000000018,994,994,3,1,993.75,10.961939888075,-0.000863298773765564,10.9620607271791,
