"Total Time (s)","Cycle Elapsed Time (s)","Total Cycles","Elapsed Cycles","Step","Loop 1","Total Cycle Count(Linear Waveform)","Position(Linear:Position) (mm)","Force(Linear:Load) (kN)","Displacement(Linear:Digital Position) (mm)",
998.136,0,993,993,3,1,992,11.4543815609068,-0.00339585822075605,11.4545024000108,
998.146,0.0100000000001046,993,993,3,1,992,11.5851238556206,-0.00764564145356417,11.5852447226644,
998.152,0.0160000000000764,993,993,3,1,992,11.6142079699785,-0.00959793105721474,11.6143288090825,
998.162,0.0260000000000673,993,993,3,1,992,11.5336416196078,-0.00959930010139942,11.5370970591903,
998.172,0.0360000000000582,993,993,3,1,992,11.2968281283975,-0.00396731309592724,11.2969489954412,
998.182,0.0460000000000491,993,993,3,1,992,11.0318126901984,0.0013326620683074,11.0319335572422,
998.192,0.05600000000004,993,993,3,1,992,10.8747996389866,-0.00357999466359615,10.8749205060303,
998.202,0.0660000000000309,993,993,3,1,992,10.8414121996611,-0.01058220397681,10.8415330387652,
998.212,0.0760000000000218,993,993,3,1,992,10.8231399580836,-0.0168369617313147,10.8232608251274,
998.222,0.0860000000000127,993,993,3,1,992,10.7340702228248,-0.0312248384580016,10.7341910898685,
998.232,0.0960000000000036,993,993,3,1,992,10.5972690135241,-0.0629529962316155,10.5973898805678,
998.242,0.106000000000108,993,993,3,1,992,10.4748246073723,-0.099493102170527,10.4769878648221,
998.252,0.116000000000099,993,993,3,1,992,10.3866995405406,-0.129782389849424,10.3868203796446,
998.262,0.12600000000009,993,993,3,1,992,10.3027553111315,-0.159096312709153,10.3047056682408,
998.272,0.136000000000081,993,993,3,1,992,10.203963322565,-0.192614020779729,10.2061884663999,
998.282,0.146000000000072,993,993,3,1,992,10.0969662051648,-0.231165550649166,10.0992427021265,
998.292,0.156000000000063,993,993,3,1,992,9.98801945708692,-0.26927730999887,9.9903211556375,
998.302,0.166000000000054,993,993,3,1,992,9.88141179084778,-0.307037346065044,9.88153265789151,
998.312,0.176000000000045,993,993,3,1,992,9.77156432345509,-0.345114208757877,9.77168519049883,
998.322,0.186000000000035,993,993,3,1,992,9.6633169054985,-0.383110614493489,9.66343777254224,
998.332,0.196000000000026,993,993,3,1,992,9.55418583936989,-0.420666965655982,9.55430667847395,
998.342,0.206000000000017,993,993,3,1,992,9.43900365382433,-0.460404059849679,9.43912452086806,
998.352,0.216000000000008,993,993,3,1,992,9.32956019416451,-0.498391352593899,9.32968106120825,
998.362,0.225999999999999,993,993,3,1,992,9.2138226237148,-0.538026746362448,9.21394346281886,
998.372,0.236000000000104,993,993,3,1,992,9.09943104721606,-0.57745055295527,9.09955188632011,
998.382,0.246000000000095,993,993,3,1,992,8.97779918275773,-0.618506562896073,8.98028802126646,
998.396,0.260000000000105,993,993,3,1,992.25,8.81240210495889,-0.675340313464403,8.81252294406295,
998.406,0.270000000000096,993,993,3,1,992.25,8.6958144698292,-0.715056611225009,8.69593530893326,
998.416,0.280000000000086,993,993,3,1,992.25,8.57626620680094,-0.755951995961368,8.57638707384467,
998.426,0.290000000000077,993,993,3,1,992.25,8.45248469151556,-0.796805839054286,8.45508936792612,
998.436,0.300000000000068,993,993,3,1,992.25,8.3290430624038,-0.83974092733115,8.32916390150785,
998.446,0.310000000000059,993,993,3,1,992.25,8.2087217643857,-0.880317729897797,8.20884263142943,
998.456,0.32000000000005,993,993,3,1,992.25,8.08660760521889,-0.921773528680205,8.08672847226262,
998.466,0.330000000000041,993,993,3,1,992.25,7.96183414757252,-0.96394008025527,7.96195501461625,
998.476,0.340000000000032,993,993,3,1,992.25,7.83420139923692,-1.00729172118008,7.83432226628065,
998.486,0.350000000000023,993,993,3,1,992.25,7.70879751071334,-1.04973874986172,7.70891837775707,
998.496,0.360000000000014,993,993,3,1,992.25,7.58341809734702,-1.09230598434806,7.58353896439075,
998.506,0.370000000000005,993,993,3,1,992.25,7.45461696758866,-1.13577832002193,7.4547378346324,
998.516,0.380000000000109,993,993,3,1,992.25,7.32710461132228,-1.17849163711071,7.32722545042634,
998.526,0.3900000000001,993,993,3,1,992.25,7.20158284530044,-1.22114998288453,7.20170371234417,
998.536,0.400000000000091,993,993,3,1,992.25,7.07492074929178,-1.26318810973316,7.07761695608497,
998.546,0.410000000000082,993,993,3,1,992.25,6.94546300917864,-1.3078047009185,6.94818791002035,
998.556,0.420000000000073,993,993,3,1,992.25,6.8183670938015,-1.35014186613262,6.81848796084523,
998.566,0.430000000000064,993,993,3,1,992.25,6.68797220103443,-1.39500923920423,6.68809304013848,
998.576,0.440000000000055,993,993,3,1,992.25,6.55726295895874,-1.43888778053224,6.5573837980628,
998.586,0.450000000000045,993,993,3,1,992.25,6.4250598102808,-1.4832953736186,6.42518067732453,
998.596,0.460000000000036,993,993,3,1,992.25,6.29570567049086,-1.52725273743272,6.29582650959492,
998.606,0.470000000000027,993,993,3,1,992.25,6.16579220630229,-1.57099391333759,6.16591304540634,
998.616,0.480000000000018,993,993,3,1,992.25,6.03385764174163,-1.61505521275103,6.0366328060627,
998.626,0.490000000000009,993,993,3,1,992.25,5.89988482184708,-1.66095079854131,5.90000566095114,
998.636,0.5,993,993,3,1,992.5,5.77144612558186,-1.70426328666508,5.77156696468592,
998.646,0.510000000000105,993,993,3,1,992.5,5.64608604647219,-1.7408074811101,5.64620688557625,
998.65,0.51400000000001,993,993,3,1,992.5,5.61951085925102,-1.74447638913989,5.61963172629476,
998.653,0.517000000000053,993,993,3,1,992.5,5.61391985043883,-1.74203157424927,5.61404071748257,
998.663,0.527000000000044,993,993,3,1,992.5,5.64834924414754,-1.71346797607839,5.64847011119127,
998.673,0.537000000000035,993,993,3,1,992.5,5.73897834867239,-1.66701696347445,5.73909921571612,
998.683,0.547000000000025,993,993,3,1,992.5,5.83285856992006,-1.62284250371158,5.8329794369638,
998.693,0.557000000000016,993,993,3,1,992.5,5.90802219696343,-1.58770360983908,5.90814303606748,
998.703,0.567000000000007,993,993,3,1,992.5,5.98578228615224,-1.55368126928806,5.9859031252563,
998.713,0.576999999999998,993,993,3,1,992.5,6.07321148738265,-1.51572959497571,6.07333235442638,
998.723,0.587000000000103,993,993,3,1,992.5,6.16144303232431,-1.47892182692885,6.16156389936805,
998.733,0.597000000000094,993,993,3,1,992.5,6.25568929128349,-1.44016705453396,6.25581013038754,
998.743,0.607000000000085,993,993,3,1,992.5,6.35226552374661,-1.40211515128613,6.35041259229183,
998.753,0.617000000000075,993,993,3,1,992.5,6.44927353598177,-1.36394719127566,6.44742004573345,
998.763,0.627000000000066,993,993,3,1,992.5,6.54821572825313,-1.32555067073554,6.54833659529686,
998.773,0.637000000000057,993,993,3,1,992.5,6.65211073122919,-1.28550997469574,6.65223157033324,
998.783,0.647000000000048,993,993,3,1,992.5,6.75752769224346,-1.24600721057504,6.75764853134751,
998.793,0.657000000000039,993,993,3,1,992.5,6.86478428542614,-1.20698978193104,6.86275625601411,
998.803,0.66700000000003,993,993,3,1,992.5,6.9730081781745,-1.16662750020623,6.97312904521823,
998.813,0.677000000000021,993,993,3,1,992.5,7.08394020795822,-1.12624094355851,7.08406107500196,
998.823,0.687000000000012,993,993,3,1,992.5,7.19814592972398,-1.08542602043599,7.19826679676771,
998.833,0.697000000000003,993,993,3,1,992.5,7.3127939645201,-1.04485717136413,7.31291480362415,
998.843,0.707000000000107,993,993,3,1,992.5,7.42732674814761,-1.00413851905614,7.42744758725166,
998.853,0.717000000000098,993,993,3,1,992.5,7.54420224577188,-0.96356020309031,7.54432311281562,
998.863,0.727000000000089,993,993,3,1,992.5,7.66459263861179,-0.921252705156803,7.66471350565553,
998.873,0.73700000000008,993,993,3,1,992.5,7.78578836470842,-0.880048857070506,7.78353128582239,
998.883,0.747000000000071,993,993,3,1,992.5,7.90541117079556,-0.839272933080792,7.90553200989962,
998.896,0.760000000000105,993,993,3,1,992.75,8.06225169450045,-0.786018357612193,8.06237256154418,
998.906,0.770000000000096,993,993,3,1,992.75,8.18639343604445,-0.744416075758636,8.1840412504971,
998.916,0.780000000000086,993,993,3,1,992.75,8.30983922816813,-0.70307110901922,8.30996006727219,
998.926,0.790000000000077,993,993,3,1,992.75,8.43263170681894,-0.663428194820881,8.43029553070664,
998.936,0.800000000000068,993,993,3,1,992.75,8.5575149115175,-0.621046242304146,8.55763580650091,
998.946,0.810000000000059,993,993,3,1,992.75,8.68716540746391,-0.578540856949985,8.68467355147004,
998.956,0.82000000000005,993,993,3,1,992.75,8.81271754391491,-0.537818069569767,8.81283838301897,
998.966,0.830000000000041,993,993,3,1,992.75,8.93964501097798,-0.497136390767992,8.93976587802172,
998.976,0.840000000000032,993,993,3,1,992.75,9.06642495654523,-0.456118010915816,9.06654579564929,
998.986,0.850000000000023,993,993,3,1,992.75,9.19674474745989,-0.41442415677011,9.19686561450362,
998.996,0.860000000000014,993,993,3,1,992.75,9.32702989317477,-0.372926173731685,9.32715073227882,
999.006,0.870000000000005,993,993,3,1,992.75,9.45439796894789,-0.332891191355884,9.45451883599162,
999.016,0.880000000000109,993,993,3,1,992.75,9.58302562125027,-0.29249394312501,9.58055203780532,
999.026,0.8900000000001,993,993,3,1,992.75,9.71431558951736,-0.251733199693263,9.71443645656109,
999.036,0.900000000000091,993,993,3,1,992.75,9.8476124368608,-0.210018041543663,9.84773330390453,
999.046,0.910000000000082,993,993,3,1,992.75,9.98480195179581,-0.168356169015169,9.98492281883955,
999.056,0.920000000000073,993,993,3,1,992.75,10.1202271040529,-0.128261176869273,10.120347943157,
999.066,0.930000000000064,993,993,3,1,992.75,10.2564338967204,-0.0896600633859634,10.2565547637641,
999.076,0.940000000000055,993,993,3,1,992.75,10.3967579640448,-0.053109647706151,10.3968788310885,
999.086,0.950000000000045,993,993,3,1,992.75,10.5463803280145,-0.0226232828572392,10.5465011671185,
999.096,0.960000000000036,993,993,3,1,992.75,10.7144731655717,-0.00532445032149553,10.7145940326154,
999.106,0.970000000000027,993,993,3,1,992.75,10.9094510693103,-0.00250433105975389,10.9095719642937,
999.116,0.980000000000018,993,993,3,1,992.75,11.1124983150512,-0.00331886578351259,11.1126191541553,
999.126,0.990000000000009,993,993,3,1,992.75,11.2983434367925,-0.00368134118616581,11.2984642758965,
999.136,1,993,993,3,1,993,11.4538452308625,-0.003041778691113,11.4510809630156,
999.146,0.0100000000001046,994,994,3,1,993,11.5852123964578,-0.00739878043532372,11.5853332355618,
999.152,0.0160000000000764,994,994,3,1,993,11.6143013723195,-0.00934353098273277,11.6144448146224,
999.167,0.0310000000000628,994,994,3,1,993,11.4300619158894,-0.00741986557841301,11.4301827549934,
999.177,0.0410000000000537,994,994,3,1,993,11.1578189302236,-0.000829580239951611,11.1579397693276,
999.183,0.0470000000000255,994,994,3,1,993,11.0095694102347,0.00136940274387598,11.0140044987202,
999.193,0.0570000000000164,994,994,3,1,993,10.8686805423349,-0.00405833590775728,10.868801381439,
999.203,0.0670000000000073,994,994,3,1,993,10.8414732757956,-0.0113008497282863,10.8415941148996,
999.213,0.0769999999999982,994,994,3,1,993,10.8182359021157,-0.0179451424628496,10.8194641023874,
999.223,0.0870000000001028,994,994,3,1,993,10.720956819132,-0.0335870170965791,10.721077658236,
999.233,0.0970000000000937,994,994,3,1,993,10.5806133057922,-0.0671252049505711,10.5807341448963,
999.243,0.107000000000085,994,994,3,1,993,10.4645348154008,-0.103269764222205,10.4646556824446,
999.253,0.117000000000075,994,994,3,1,993,10.3781724069268,-0.132571896538138,10.3782932460308,
999.263,0.127000000000066,994,994,3,1,993,10.2943987492472,-0.161491534672678,10.2945196442306,
999.273,0.137000000000057,994,994,3,1,993,10.1945033390075,-0.19691850990057,10.1946241781116,
999.283,0.147000000000048,994,994,3,1,993,10.086111696437,-0.234772190451622,10.0862325914204,
999.293,0.157000000000039,994,994,3,1,993,9.97654315084219,-0.273459884338081,9.97666401788592,
999.303,0.16700000000003,994,994,3,1,993,9.86772140488029,-0.311341327615082,9.86784227192402,
999.313,0.177000000000021,994,994,3,1,993,9.76060098968446,-0.349069172516465,9.76072188466787,
999.323,0.187000000000012,994,994,3,1,993,9.65195800177753,-0.386731801554561,9.65207884088159,
999.333,0.197000000000003,994,994,3,1,993,9.54074394889176,-0.425448967143893,9.54086484387517,
999.343,0.207000000000107,994,994,3,1,993,9.42989034578204,-0.463449209928513,9.43001121282578,
999.353,0.217000000000098,994,994,3,1,993,9.31531948037445,-0.502943722531199,9.31769566610456,
999.363,0.227000000000089,994,994,3,1,993,9.2022748477757,-0.542093212716281,9.20239571481943,
999.373,0.23700000000008,994,994,3,1,993,9.08554899506271,-0.582192558795214,9.08804923295975,
999.383,0.247000000000071,994,994,3,1,993,8.9663705136627,-0.623098383657634,8.96649135276675,
999.396,0.260000000000105,994,994,3,1,993.25,8.81240920163691,-0.67525552585721,8.81253004074097,
999.406,0.270000000000096,994,994,3,1,993.25,8.69575557298958,-0.715172695927322,8.69587641209364,
999.416,0.280000000000086,994,994,3,1,993.25,8.57641979120672,-0.755903474055231,8.57654063031077,
999.426,0.290000000000077,994,994,3,1,993.25,8.4525157045573,-0.797989666461945,8.45263654366135,
999.436,0.300000000000068,994,994,3,1,993.25,8.32924000918865,-0.839551980607212,8.33179643377662,
999.446,0.310000000000059,994,994,3,1,993.25,8.20817696861923,-0.8806555531919,8.20829780772328,
999.456,0.32000000000005,994,994,3,1,993.25,8.08644508011639,-0.92199279461056,8.08904120698571,
999.466,0.330000000000041,994,994,3,1,993.25,7.96163831837475,-0.962918289005756,7.96426361426711,
999.476,0.340000000000032,994,994,3,1,993.25,7.83498172648251,-1.00710029248148,7.83510256558657,
999.486,0.350000000000023,994,994,3,1,993.25,7.70912535488605,-1.04957922827452,7.70924622192979,
999.496,0.360000000000014,994,994,3,1,993.25,7.58292200043797,-1.09214214142412,7.58304286748171,
999.506,0.370000000000005,994,994,3,1,993.25,7.45463577099144,-1.13547726534307,7.4547566100955,
999.516,0.380000000000109,994,994,3,1,993.25,7.32998734340072,-1.17775914724916,7.33010821044445,
999.526,0.3900000000001,994,994,3,1,993.25,7.20380695536733,-1.21986593585461,7.20392782241106,
999.536,0.400000000000091,994,994,3,1,993.25,7.07489018328488,-1.26393407117575,7.07501102238893,
999.546,0.410000000000082,994,994,3,1,993.25,6.94562735036016,-1.30754335783422,6.94574821740389,
999.556,0.420000000000073,994,994,3,1,993.25,6.81609216146171,-1.35016078129411,6.8187695927918,
999.566,0.430000000000064,994,994,3,1,993.25,6.68746246956289,-1.39520803466439,6.69021120294929,
999.576,0.440000000000055,994,994,3,1,993.25,6.55644075013697,-1.43947876989841,6.55656158924103,
999.586,0.450000000000045,994,994,3,1,993.25,6.42548225820065,-1.48354553617537,6.42560312524438,
999.596,0.460000000000036,994,994,3,1,993.25,6.29590412601829,-1.52748090215027,6.29602499306202,
999.606,0.470000000000027,994,994,3,1,993.25,6.16940164938569,-1.56999750062823,6.16952251642942,
999.616,0.480000000000018,994,994,3,1,993.25,6.03408901020885,-1.61627514287829,6.03420987725258,
999.626,0.490000000000009,994,994,3,1,993.25,5.90222303755581,-1.66026644408703,5.90234393253922,
999.636,0.5,994,994,3,1,993.5,5.76826594769955,-1.70574455522001,5.76838681474328,
999.646,0.510000000000105,994,994,3,1,993.5,5.64617467112839,-1.74119886942208,5.64629551023245,
999.651,0.5150000000001,994,994,3,1,993.5,5.61706479638815,-1.74409205559641,5.61718566343188,
999.653,0.517000000000053,994,994,3,1,993.5,5.61417443677783,-1.74222570378333,5.61429530382156,
999.663,0.527000000000044,994,994,3,1,993.5,5.64668409526348,-1.71440300531685,5.64680496230721,
999.673,0.537000000000035,994,994,3,1,993.5,5.74126518331468,-1.66605797130615,5.74138602241874,
999.683,0.547000000000025,994,994,3,1,993.5,5.83281967788935,-1.62228601519018,5.83294054493308,
999.693,0.557000000000016,994,994,3,1,993.5,5.91115180402994,-1.58654276747257,5.91127267107368,
999.703,0.567000000000007,994,994,3,1,993.5,5.98769327625632,-1.55336997937411,5.9862363897264,
999.713,0.576999999999998,994,994,3,1,993.5,6.07235776260495,-1.51555139105767,6.07247862964868,
999.723,0.587000000000103,994,994,3,1,993.5,6.16275083273649,-1.47798884194344,6.16287169978023,
999.733,0.597000000000094,994,994,3,1,993.5,6.25641519203782,-1.43960582558066,6.25653605908155,
999.743,0.607000000000085,994,994,3,1,993.5,6.35234995745122,-1.40174928121269,6.35247079655528,
999.753,0.617000000000075,994,994,3,1,993.5,6.44872373901308,-1.36376077774912,6.44884457811713,
999.763,0.627000000000066,994,994,3,1,993.5,6.54619778506458,-1.32643696852028,6.54631868004799,
999.773,0.637000000000057,994,994,3,1,993.5,6.65233626030385,-1.28560417331755,6.65245709940791,
999.783,0.647000000000048,994,994,3,1,993.5,6.75849398598075,-1.24566724989563,6.75861485302448,
999.793,0.657000000000039,994,994,3,1,993.5,6.86423764564097,-1.20695338118821,6.86435854062438,
999.803,0.66700000000003,994,994,3,1,993.5,6.97252853773534,-1.16702131927013,6.9726493768394,
999.813,0.677000000000021,994,994,3,1,993.5,7.08414145745337,-1.12602706067264,7.08426229655743,
999.823,0.687000000000012,994,994,3,1,993.5,7.19852406531572,-1.08516082633287,7.19864493235946,
999.833,0.697000000000003,994,994,3,1,993.5,7.31268038973212,-1.04469057638198,7.31280125677586,
999.843,0.707000000000107,994,994,3,1,993.5,7.42696696892381,-1.00431978702545,7.42708783596754,
999.853,0.717000000000098,994,994,3,1,993.5,7.54400110803545,-0.963248033076525,7.5441219471395,
999.863,0.727000000000089,994,994,3,1,993.5,7.66441245563328,-0.921317455358803,7.66453329473734,
999.873,0.73700000000008,994,994,3,1,993.5,7.78604549355805,-0.880453577265143,7.78377229347825,
999.883,0.747000000000071,994,994,3,1,993.5,7.90546291507781,-0.83919882774353,7.90558375418186,
999.896,0.760000000000105,994,994,3,1,993.75,8.06238524615765,-0.786072788760066,8.06250611320138,
999.906,0.770000000000096,994,994,3,1,993.75,8.18657984957099,-0.744044873863459,8.18670071661472,
999.916,0.780000000000086,994,994,3,1,993.75,8.3098569419235,-0.703058117069304,8.30997778102756,
999.926,0.790000000000077,994,994,3,1,993.75,8.43268839642405,-0.662594535388052,8.43280926346779,
999.936,0.800000000000068,994,994,3,1,993.75,8.55722283013165,-0.621558134444058,8.5573436692357,
999.946,0.810000000000059,994,994,3,1,993.75,8.68581614457071,-0.579781946726143,8.68330053985119,
999.956,0.82000000000005,994,994,3,1,993.75,8.81520906463265,-0.538162044249475,8.81283279508352,
999.966,0.830000000000041,994,994,3,1,993.75,8.9369503967464,-0.497724884189665,8.93707126379013,
999.976,0.840000000000032,994,994,3,1,993.75,9.06746520660817,-0.456109018996358,9.06501235440373,
999.986,0.850000000000023,994,994,3,1,993.75,9.19784853234887,-0.414054673165083,9.1979693993926,
999.996,0.860000000000014,994,994,3,1,993.75,9.32735818438232,-0.373131092637777,9.32747902348638,
1000.006,0.870000000000005,994,994,3,1,993.75,9.45225211791694,-0.333561259321868,9.452372957021,
1000.016,0.880000000000109,994,994,3,1,993.75,9.58266681991518,-0.292611690238118,9.58278765901923,
1000.026,0.8900000000001,994,994,3,1,993.75,9.71354621462524,-0.251629678532481,9.7136670537293,
1000.036,0.900000000000091,994,994,3,1,993.75,9.84782743267715,-0.2099643740803,9.84794827178121,
1000.046,0.910000000000082,994,994,3,1,993.75,9.98269778676331,-0.169214522466063,9.98281862586737,
1000.056,0.920000000000073,994,994,3,1,993.75,10.1199916005135,-0.128147164359689,10.1201124675572,
1000.066,0.930000000000064,994,994,3,1,993.75,10.256663588807,-0.0897520408034325,10.256784427911,
1000.076,0.940000000000055,994,994,3,1,993.75,10.3969930205494,-0.0528607564046979,10.3971138596535,
1000.086,0.950000000000045,994,994,3,1,993.75,10.5466519296169,-0.0229278393089771,10.5467727966607,
1000.096,0.960000000000036,994,994,3,1,993.75,10.7141369674355,-0.00499327201396227,10.7142578065395,
1000.106,0.970000000000027,994,994,3,1,993.75,10.9090565051883,-0.00258030835539103,10.9091773442924,
1000.116,0.980000000000018,994,994,3,1,993.75,11.1122948862612,-0.003391751088202,11.112415753305,
1000.126,0.990000000000009,994,994,3,1,993.75,11.2984341848642,-0.00401255208998919,11.2951360456645,
1000.136,1,994,994,3,1,994,11.454504719004,-0.00309921335428953,11.4546255581081,
