"Total Time (s)","Cycle Elapsed Time (s)","Total Cycles","Elapsed Cycles","Step","Loop 1","Total Cycle Count(Linear Waveform)","Position(Linear:Position) (mm)","Force(Linear:Load) (kN)","Displacement(Linear:Digital Position) (mm)",
998.132,0,993,993,3,1,992,11.2213694304228,-0.00113088171929121,11.2213683128357,
998.143,0.0109999999999673,993,993,3,1,992,11.3428701460361,-0.00518679153174162,11.3428690284491,
998.15,0.0179999999999154,993,993,3,1,992,11.3727124314755,-0.00639915931969881,11.3727113418281,
998.16,0.0279999999999063,993,993,3,1,992,11.3166711945087,-0.00659775920212269,11.3166701048613,
998.17,0.0380000000000109,993,993,3,1,992,11.1394057609141,-0.00392088666558266,11.139404643327,
998.18,0.0480000000000018,993,993,3,1,992,10.8937140181661,-0.000553447753190994,10.893712900579,
998.19,0.0579999999999927,993,993,3,1,992,10.6742905452847,0.000466471537947655,10.6742894276977,
998.192,0.0599999999999454,993,993,3,1,992,10.6352746859193,0.000853966921567917,10.6352735683322,
998.202,0.0699999999999363,993,993,3,1,992,10.4746276885271,-0.00238309148699045,10.4771660640836,
998.212,0.0799999999999272,993,993,3,1,992,10.3747196216136,-0.0122762518003583,10.3763154521584,
998.222,0.0899999999999181,993,993,3,1,992,10.3038316313177,-0.0249673705548048,10.3051806986332,
998.232,0.0999999999999091,993,993,3,1,992,10.2312807552516,-0.0408537173643708,10.2312796376646,
998.242,0.110000000000014,993,993,3,1,992,10.146052474156,-0.0612153764814138,10.1478783041239,
998.252,0.120000000000005,993,993,3,1,992,10.0499027129263,-0.0844516279175878,10.0499016232789,
998.262,0.129999999999995,993,993,3,1,992,9.94562870822847,-0.10904542170465,9.94774751365185,
998.272,0.139999999999986,993,993,3,1,992,9.83981626108289,-0.134328445419669,9.84191212803125,
998.282,0.149999999999977,993,993,3,1,992,9.73406818695366,-0.159013629890978,9.73620878532529,
998.292,0.159999999999968,993,993,3,1,992,9.625861980021,-0.183527516201138,9.62586086243391,
998.302,0.169999999999959,993,993,3,1,992,9.51806827448308,-0.208012592047453,9.51806712895632,
998.312,0.17999999999995,993,993,3,1,992,9.41009170375764,-0.231850016862154,9.41009061411023,
998.322,0.189999999999941,993,993,3,1,992,9.29310665465891,-0.258138598874211,9.2931055650115,
998.332,0.199999999999932,993,993,3,1,992,9.17550765909255,-0.283716772682965,9.17784389108419,
998.342,0.209999999999923,993,993,3,1,992,9.05775460414588,-0.308879860676825,9.06010240316391,
998.352,0.219999999999914,993,993,3,1,992,8.94070560112596,-0.333975623361766,8.94070448353887,
998.362,0.229999999999905,993,993,3,1,992,8.82549676112831,-0.358810513280332,8.82549567148089,
998.372,0.240000000000009,993,993,3,1,992,8.70282844640314,-0.38460043258965,8.70282735675573,
998.382,0.25,993,993,3,1,992.25,8.58305085450411,-0.409492854960263,8.58304973691702,
998.392,0.259999999999991,993,993,3,1,992.25,8.46549502573907,-0.433811885304749,8.46549393609166,
998.402,0.269999999999982,993,993,3,1,992.25,8.34601901471615,-0.458052679896355,8.34842875599861,
998.412,0.279999999999973,993,993,3,1,992.25,8.22398593649268,-0.483005684800446,8.22398481890559,
998.422,0.289999999999964,993,993,3,1,992.25,8.10158461332321,-0.50746884662658,8.10402514412999,
998.432,0.299999999999955,993,993,3,1,992.25,7.98377436585724,-0.531519246287644,7.98377327620983,
998.442,0.309999999999945,993,993,3,1,992.25,7.86198757588863,-0.556160067208111,7.86198645830154,
998.452,0.319999999999936,993,993,3,1,992.25,7.734320377931,-0.581243080087006,7.73431928828359,
998.462,0.329999999999927,993,993,3,1,992.25,7.60916596278548,-0.606016702950001,7.60916484519839,
998.472,0.339999999999918,993,993,3,1,992.25,7.48665327206254,-0.629890449345112,7.48665215447545,
998.482,0.349999999999909,993,993,3,1,992.25,7.36438930034637,-0.653790161013603,7.36438818275929,
998.492,0.360000000000014,993,993,3,1,992.25,7.2432332765311,-0.676865726709366,7.24323218688369,
998.502,0.370000000000005,993,993,3,1,992.25,7.11739067919552,-0.701066292822361,7.11983816698194,
998.512,0.379999999999995,993,993,3,1,992.25,6.99585839174688,-0.72366792242974,6.99827268719673,
998.522,0.389999999999986,993,993,3,1,992.25,6.8751105107367,-0.747220483608544,6.87510939314961,
998.532,0.399999999999977,993,993,3,1,992.25,6.75386463291943,-0.770121021196246,6.75386354327202,
998.542,0.409999999999968,993,993,3,1,992.25,6.63463689386845,-0.793015505187213,6.63463577628136,
998.552,0.419999999999959,993,993,3,1,992.25,6.51088619604707,-0.815308960154653,6.51088507845998,
998.562,0.42999999999995,993,993,3,1,992.25,6.38979527167976,-0.838675126433373,6.38979418203235,
998.572,0.439999999999941,993,993,3,1,992.25,6.26724335364997,-0.861114710569382,6.26724226400256,
998.582,0.449999999999932,993,993,3,1,992.25,6.14324231632054,-0.884129852056503,6.14324122667313,
998.592,0.459999999999923,993,993,3,1,992.25,6.02197903208435,-0.906319729983807,6.02197794243693,
998.602,0.469999999999914,993,993,3,1,992.25,5.90178636834025,-0.928435050882399,5.90178525075316,
998.612,0.479999999999905,993,993,3,1,992.25,5.77986432239413,-0.950536136515439,5.77986320480704,
998.622,0.490000000000009,993,993,3,1,992.25,5.6572206504643,-0.973232705146074,5.65721953287721,
998.632,0.5,993,993,3,1,992.5,5.53062778897583,-0.995120024308562,5.53307807072997,
998.642,0.509999999999991,993,993,3,1,992.5,5.41583511047065,-1.01202844642103,5.41583402082324,
998.645,0.51299999999992,993,993,3,1,992.5,5.39238226599991,-1.01317539345473,5.3923811763525,
998.652,0.519999999999982,993,993,3,1,992.5,5.37293348461389,-1.00850185845047,5.3729036450386,
998.662,0.529999999999973,993,993,3,1,992.5,5.40086539462209,-0.988401770591736,5.400864277035,
998.672,0.539999999999964,993,993,3,1,992.5,5.48003124073148,-0.959141775965691,5.48003012314439,
998.682,0.549999999999955,993,993,3,1,992.5,5.58211136609316,-0.927131059579551,5.58211024850607,
998.692,0.559999999999945,993,993,3,1,992.5,5.67934381775558,-0.898965485394001,5.67934272810817,
998.702,0.569999999999936,993,993,3,1,992.5,5.78173426911235,-0.871036234311759,5.78173315152526,
998.712,0.579999999999927,993,993,3,1,992.5,5.8902844414115,-0.842034593224525,5.89028332382441,
998.722,0.589999999999918,993,993,3,1,992.5,5.99878901615739,-0.815374371595681,5.9987878985703,
998.732,0.599999999999909,993,993,3,1,992.5,6.1131049040705,-0.787667357362807,6.11310381442308,
998.742,0.610000000000014,993,993,3,1,992.5,6.2247749324888,-0.760566312819719,6.22477384284139,
998.752,0.620000000000005,993,993,3,1,992.5,6.34368144907057,-0.732627040706575,6.34368035942316,
998.762,0.629999999999995,993,993,3,1,992.5,6.46511332131922,-0.70483828894794,6.46511223167181,
998.772,0.639999999999986,993,993,3,1,992.5,6.58640848472714,-0.678631654009223,6.58400846645236,
998.782,0.649999999999977,993,993,3,1,992.5,6.70388926751912,-0.652717738412321,6.7038881778717,
998.792,0.659999999999968,993,993,3,1,992.5,6.82791014201939,-0.625308640301228,6.82790905237198,
998.802,0.669999999999959,993,993,3,1,992.5,6.94926724769175,-0.599172334186733,6.94926615804434,
998.812,0.67999999999995,993,993,3,1,992.5,7.07632371224463,-0.571971815079451,7.07632262259722,
998.822,0.689999999999941,993,993,3,1,992.5,7.19852529466152,-0.546709112823009,7.19852417707443,
998.832,0.699999999999932,993,993,3,1,992.5,7.32588339596987,-0.519999293610454,7.32588227838278,
998.842,0.709999999999923,993,993,3,1,992.5,7.45031998492777,-0.494594001211226,7.45031889528036,
998.852,0.719999999999914,993,993,3,1,992.5,7.57442308589816,-0.46912579331547,7.57442196831107,
998.862,0.729999999999905,993,993,3,1,992.5,7.6964268554002,-0.444916607812047,7.69642570987344,
998.872,0.740000000000009,993,993,3,1,992.5,7.81822208315134,-0.420172186568379,7.81822096556425,
998.882,0.75,993,993,3,1,992.75,7.94096242636442,-0.395790687762201,7.94096130877733,
998.892,0.759999999999991,993,993,3,1,992.75,8.06786723434925,-0.370979895815253,8.06786611676216,
998.902,0.769999999999982,993,993,3,1,992.75,8.18869994021952,-0.347709059715271,8.18869885057211,
998.912,0.779999999999973,993,993,3,1,992.75,8.30878794193268,-0.324062323197722,8.3063561283052,
998.922,0.789999999999964,993,993,3,1,992.75,8.43063158914447,-0.300052226521075,8.43063047155738,
998.932,0.799999999999955,993,993,3,1,992.75,8.55266938917339,-0.276773795485497,8.55266829952598,
998.942,0.809999999999945,993,993,3,1,992.75,8.66979843936861,-0.254603619687259,8.66979734972119,
998.952,0.819999999999936,993,993,3,1,992.75,8.78892025910318,-0.231556557118893,8.78891911357641,
998.962,0.829999999999927,993,993,3,1,992.75,8.91201524063945,-0.20840862300247,8.91201412305236,
998.972,0.839999999999918,993,993,3,1,992.75,9.04150335118174,-0.183949391357601,9.04150223359466,
998.982,0.849999999999909,993,993,3,1,992.75,9.16741752997041,-0.160553730092943,9.16495408862829,
998.992,0.860000000000014,993,993,3,1,992.75,9.28670631721616,-0.138462940230966,9.28670519962907,
999.002,0.870000000000005,993,993,3,1,992.75,9.40856259316206,-0.11661275755614,9.40856147557497,
999.012,0.879999999999995,993,993,3,1,992.75,9.53246061690152,-0.0945231691002846,9.5324595272541,
999.022,0.889999999999986,993,993,3,1,992.75,9.65537851676345,-0.0732534239068627,9.65537739917636,
999.032,0.899999999999977,993,993,3,1,992.75,9.78090276941657,-0.0518864253535867,9.78090165182948,
999.042,0.909999999999968,993,993,3,1,992.75,9.91156261414289,-0.0317900767549872,9.90894164890051,
999.052,0.919999999999959,993,993,3,1,992.75,10.0443115085363,-0.0135637726634741,10.0443103909492,
999.062,0.92999999999995,993,993,3,1,992.75,10.1843285467476,-0.00279255211353302,10.181368868798,
999.072,0.939999999999941,993,993,3,1,992.75,10.340509917587,-0.000768364407122135,10.3405088,
999.082,0.949999999999932,993,993,3,1,992.75,10.5191074870527,-0.00148462597280741,10.5155634507537,
999.092,0.959999999999923,993,993,3,1,992.75,10.6891292240471,-0.00209760386496782,10.6891281343997,
999.102,0.969999999999914,993,993,3,1,992.75,10.846338244155,-0.00207723584026098,10.8463371545076,
999.112,0.979999999999905,993,993,3,1,992.75,10.9815167728812,-0.00195346772670746,10.9815156832337,
999.122,0.990000000000009,993,993,3,1,992.75,11.1036500148475,-0.00159637071192265,11.1036488972604,
999.132,1,993,993,3,1,993,11.2224990595132,-0.00108544249087572,11.2224979698658,
999.142,0.00999999999999091,994,994,3,1,993,11.336640464142,-0.00472805462777615,11.3366393744946,
999.15,0.0179999999999154,994,994,3,1,993,11.3722809311002,-0.00592415686696768,11.3722798414528,
999.167,0.0349999999999682,994,994,3,1,993,11.1979044321924,-0.00485837925225496,11.197903342545,
999.177,0.0449999999999591,994,994,3,1,993,10.9712754003704,-0.00136202201247215,10.9712742827833,
999.187,0.05499999999995,994,994,3,1,993,10.7372293341905,1.29546970129013E-05,10.7372282445431,
999.192,0.0599999999999454,994,994,3,1,993,10.6315502990037,0.000992990098893642,10.6315492093563,
999.202,0.0699999999999363,994,994,3,1,993,10.4739510733634,-0.00242163427174091,10.4765026643872,
999.212,0.0799999999999272,994,994,3,1,993,10.3739019669592,-0.0122776487842202,10.3739008493721,
999.222,0.0899999999999181,994,994,3,1,993,10.3039917256683,-0.0251019792631269,10.3039906360209,
999.232,0.0999999999999091,994,994,3,1,993,10.2316969726235,-0.040566548705101,10.2316958829761,
999.242,0.110000000000014,994,994,3,1,993,10.147112980485,-0.0609984993934631,10.1471118628979,
999.252,0.120000000000005,994,994,3,1,993,10.0503147393465,-0.0844765175133944,10.0523604266346,
999.262,0.129999999999995,994,994,3,1,993,9.94532578624785,-0.109729561954737,9.94532469660044,
999.272,0.139999999999986,994,994,3,1,993,9.83863237313926,-0.134387635625899,9.83863128349185,
999.282,0.149999999999977,994,994,3,1,993,9.73304752260447,-0.158864068798721,9.73304640501738,
999.292,0.159999999999968,994,994,3,1,993,9.62648115120828,-0.183421922847629,9.62648006156087,
999.302,0.169999999999959,994,994,3,1,993,9.51897921971977,-0.207617864944041,9.51897813007236,
999.312,0.17999999999995,994,994,3,1,993,9.40801899880171,-0.232524038292468,9.40801788121462,
999.322,0.189999999999941,994,994,3,1,993,9.29366550408304,-0.258239875547588,9.29366441443563,
999.332,0.199999999999932,994,994,3,1,993,9.17539070360363,-0.283885574899614,9.17538961395621,
999.342,0.209999999999923,994,994,3,1,993,9.05916435644031,-0.30898280441761,9.05916323885321,
999.352,0.219999999999914,994,994,3,1,993,8.94005787558853,-0.334570342674851,8.94005678594112,
999.362,0.229999999999905,994,994,3,1,993,8.82187949493527,-0.359654217027128,8.82187837734818,
999.372,0.240000000000009,994,994,3,1,993,8.70228535495698,-0.38400576915592,8.70467327535152,
999.382,0.25,994,994,3,1,993.25,8.58351395465434,-0.409306837245822,8.58351286500692,
999.392,0.259999999999991,994,994,3,1,993.25,8.46580328419805,-0.43367313221097,8.46580216661096,
999.402,0.269999999999982,994,994,3,1,993.25,8.3462206274271,-0.458195204846561,8.34621950984001,
999.412,0.279999999999973,994,994,3,1,993.25,8.22649852372706,-0.482692285440862,8.22649743407965,
999.422,0.289999999999964,994,994,3,1,993.25,8.10241165570915,-0.507764695212245,8.10241056606174,
999.432,0.299999999999955,994,994,3,1,993.25,7.98142416402697,-0.531918904744089,7.98142304643989,
999.442,0.309999999999945,994,994,3,1,993.25,7.85871539264917,-0.556530863977969,7.85871427506208,
999.452,0.319999999999936,994,994,3,1,993.25,7.73632099851966,-0.580736203119159,7.73631988093257,
999.462,0.329999999999927,994,994,3,1,993.25,7.61148666031659,-0.605545174330473,7.61148557066917,
999.472,0.339999999999918,994,994,3,1,993.25,7.48663597740233,-0.629423893988132,7.48906094580889,
999.482,0.349999999999909,994,994,3,1,993.25,7.36462184228003,-0.65343655180186,7.36706290394068,
999.492,0.360000000000014,994,994,3,1,993.25,7.24136218428612,-0.677604330703616,7.24136106669903,
999.502,0.370000000000005,994,994,3,1,993.25,7.11786593310535,-0.70116613060236,7.11786484345794,
999.512,0.379999999999995,994,994,3,1,993.25,6.99585285969079,-0.724017154425383,6.99585177004337,
999.522,0.389999999999986,994,994,3,1,993.25,6.87773169949651,-0.746680935844779,6.87773058190942,
999.532,0.399999999999977,994,994,3,1,993.25,6.75425486639142,-0.769786536693573,6.75425374880433,
999.542,0.409999999999968,994,994,3,1,993.25,6.63259363733232,-0.793170141987503,6.63259254768491,
999.552,0.419999999999959,994,994,3,1,993.25,6.51103025302291,-0.815974459983408,6.51102913543582,
999.562,0.42999999999995,994,994,3,1,993.25,6.38996908441186,-0.838309787213802,6.38996796682477,
999.572,0.439999999999941,994,994,3,1,993.25,6.269442262128,-0.860605193302035,6.26944117248058,
999.582,0.449999999999932,994,994,3,1,993.25,6.14363905973732,-0.884214802645147,6.14363797008991,
999.592,0.459999999999923,994,994,3,1,993.25,6.02159790694714,-0.906019574031234,6.02400116622448,
999.602,0.469999999999914,994,994,3,1,993.25,5.9012264572084,-0.92821279540658,5.90122533962131,
999.612,0.479999999999905,994,994,3,1,993.25,5.7795671839267,-0.950464638881385,5.77956609427929,
999.622,0.490000000000009,994,994,3,1,993.25,5.6572001427412,-0.973091856576502,5.65719902515411,
999.632,0.5,994,994,3,1,993.5,5.53043799474835,-0.995738324709237,5.53043687716126,
999.642,0.509999999999991,994,994,3,1,993.5,5.4155049752444,-1.01182947866619,5.41738411411643,
999.646,0.51400000000001,994,994,3,1,993.5,5.38625012151897,-1.01312424987555,5.38732292130589,
999.652,0.519999999999982,994,994,3,1,993.5,5.37223465740681,-1.00818090606481,5.37223353981972,
999.662,0.529999999999973,994,994,3,1,993.5,5.39972906000912,-0.987991243600845,5.39972797036171,
999.672,0.539999999999964,994,994,3,1,993.5,5.48116402700543,-0.95803621225059,5.48116290941834,
999.682,0.549999999999955,994,994,3,1,993.5,5.58187214657664,-0.927360416390002,5.58187102898955,
999.692,0.559999999999945,994,994,3,1,993.5,5.67923275753856,-0.898859547451139,5.67923163995147,
999.702,0.569999999999936,994,994,3,1,993.5,5.78446076251566,-0.870370753109455,5.78445967286825,
999.712,0.579999999999927,994,994,3,1,993.5,5.89136805385351,-0.842549810186028,5.88917076587677,
999.722,0.589999999999918,994,994,3,1,993.5,5.99937661550939,-0.815412881784141,5.99937552586198,
999.732,0.599999999999909,994,994,3,1,993.5,6.11112660728395,-0.787569191306829,6.11112551763654,
999.742,0.610000000000014,994,994,3,1,993.5,6.22734915465116,-0.760825569741428,6.22734803706408,
999.752,0.620000000000005,994,994,3,1,993.5,6.34066807106137,-0.73339588008821,6.34066695347428,
999.762,0.629999999999995,994,994,3,1,993.5,6.46478860639036,-0.705508789978921,6.46478751674294,
999.772,0.639999999999986,994,994,3,1,993.5,6.58659970387816,-0.678022182546556,6.58659858629107,
999.782,0.649999999999977,994,994,3,1,993.5,6.70437052845955,-0.65257356967777,6.70436941087246,
999.792,0.659999999999968,994,994,3,1,993.5,6.82836156338453,-0.625653648748994,6.82591656222939,
999.802,0.669999999999959,994,994,3,1,993.5,6.95193456485867,-0.598839865997434,6.95193344727159,
999.812,0.67999999999995,994,994,3,1,993.5,7.07582700066268,-0.572035307995975,7.07582591101527,
999.822,0.689999999999941,994,994,3,1,993.5,7.20074085518718,-0.545941535383463,7.19822203740478,
999.832,0.699999999999932,994,994,3,1,993.5,7.32318816706538,-0.520809623412788,7.32318704947829,
999.842,0.709999999999923,994,994,3,1,993.5,7.44751699268818,-0.495298826135695,7.44751587510109,
999.852,0.719999999999914,994,994,3,1,993.5,7.57350116036832,-0.469731236808002,7.57350007072091,
999.862,0.729999999999905,994,994,3,1,993.5,7.69675425253808,-0.445147790014744,7.69675316289067,
999.872,0.740000000000009,994,994,3,1,993.5,7.81909589655697,-0.420234175398946,7.81909480690956,
999.882,0.75,994,994,3,1,993.75,7.94331774115562,-0.395361916162074,7.94331662356853,
999.892,0.759999999999991,994,994,3,1,993.75,8.06805272586644,-0.370738203637302,8.06805163621902,
999.902,0.769999999999982,994,994,3,1,993.75,8.19005185738206,-0.347885116934776,8.18764602765441,
999.912,0.779999999999973,994,994,3,1,993.75,8.30939090810716,-0.324197234585881,8.30699622631073,
999.922,0.789999999999964,994,994,3,1,993.75,8.43058476224541,-0.300076035782695,8.42814322561025,
999.932,0.799999999999955,994,994,3,1,993.75,8.55211850255728,-0.276964246295393,8.55211738497019,
999.942,0.809999999999945,994,994,3,1,993.75,8.67230664007366,-0.254378220997751,8.67230555042624,
999.952,0.819999999999936,994,994,3,1,993.75,8.79185023717582,-0.231299023143947,8.79184914752841,
999.962,0.829999999999927,994,994,3,1,993.75,8.91226541250944,-0.208397703245282,8.91226429492235,
999.972,0.839999999999918,994,994,3,1,993.75,9.04161589220166,-0.183503264561296,9.04161477461457,
999.982,0.849999999999909,994,994,3,1,993.75,9.16772050783038,-0.160346236079931,9.16771939024329,
999.992,0.860000000000014,994,994,3,1,993.75,9.28948603570461,-0.138190481811762,9.28948491811752,
1000.002,0.870000000000005,994,994,3,1,993.75,9.41164875403047,-0.116309230215847,9.41164763644338,
1000.012,0.879999999999995,994,994,3,1,993.75,9.53264540992677,-0.0944907404482365,9.53264432027936,
1000.022,0.889999999999986,994,994,3,1,993.75,9.65787227265537,-0.0728793349117041,9.65787118300795,
1000.032,0.899999999999977,994,994,3,1,993.75,9.77983642369509,-0.0519647216424346,9.779835306108,
1000.042,0.909999999999968,994,994,3,1,993.75,9.90857415832579,-0.031889071688056,9.90857306867838,
1000.052,0.919999999999959,994,994,3,1,993.75,10.0431053247303,-0.013730563223362,10.0431042350829,
1000.062,0.92999999999995,994,994,3,1,993.75,10.184323573485,-0.00296600162982941,10.1843224838376,
1000.072,0.939999999999941,994,994,3,1,993.75,10.3434736747295,-0.000617913901805878,10.3400457836688,
1000.082,0.949999999999932,994,994,3,1,993.75,10.5194727145135,-0.00166678801178932,10.5194715969265,
1000.092,0.959999999999923,994,994,3,1,993.75,10.6926755234599,-0.00204652547836304,10.6893584690988,
1000.102,0.969999999999914,994,994,3,1,993.75,10.8472268935293,-0.00212044920772314,10.8472258038819,
1000.112,0.979999999999905,994,994,3,1,993.75,10.9817892126739,-0.00190706457942724,10.9817880950868,
