"Total Time (s)","Cycle Elapsed Time (s)","Total Cycles","Elapsed Cycles","Step","Loop 1","Total Cycle Count(Linear Waveform)","Position(Linear:Position) (mm)","Force(Linear:Load) (kN)","Displacement(Linear:Digital Position) (mm)",
1000.127,0,995,995,3,1,994,5.9319516364485,-0.00110077671706676,5.93194350600243,
1000.137,0.00999999999999091,995,995,3,1,994,6.04841636493802,-0.00377323944121599,6.04840820655227,
1000.146,0.0190000000000055,995,995,3,1,994,6.09590697102249,-0.00529879238456488,6.09589884057641,
1000.156,0.0289999999999964,995,995,3,1,994,6.04881011880934,-0.00588612630963326,6.04880198836327,
1000.166,0.0389999999999873,995,995,3,1,994,5.88695392012596,-0.00367518048733473,5.88694576174021,
1000.176,0.0489999999999782,995,995,3,1,994,5.65285976976156,-0.00193499960005283,5.65285161137581,
1000.186,0.0589999999999691,995,995,3,1,994,5.4022603109479,-0.000302582047879696,5.40225215256214,
1000.205,0.0779999999999745,995,995,3,1,994,5.00655974261463,0.000800131820142269,5.00655161216855,
1000.215,0.0879999999999654,995,995,3,1,994,4.86830896697938,0.000133938156068325,4.86830083653331,
1000.225,0.0979999999999563,995,995,3,1,994,4.76086176931858,-0.000808029435575008,4.76085361093283,
1000.235,0.107999999999947,995,995,3,1,994,4.66397705487907,-0.00156469643115997,4.66396892443299,
1000.245,0.117999999999938,995,995,3,1,994,4.58316111937165,-0.019285143353045,4.5831529609859,
1000.255,0.127999999999929,995,995,3,1,994,4.52589321881533,-0.0386648997664452,4.52588506042957,
1000.265,0.13799999999992,995,995,3,1,994,4.47522880509496,-0.0589424418285489,4.4752206467092,
1000.275,0.147999999999911,995,995,3,1,994,4.41839097999036,-0.0856447732076049,4.41838284954429,
1000.285,0.157999999999902,995,995,3,1,994,4.34846235439181,-0.118238055147231,4.34845419600606,
1000.295,0.168000000000006,995,995,3,1,994,4.27104008384049,-0.155304078944027,4.27103195339441,
1000.305,0.177999999999997,995,995,3,1,994,4.19198049232364,-0.192322721704841,4.19197233393788,
1000.315,0.187999999999988,995,995,3,1,994,4.10306643694639,-0.232617063447833,4.10305827856064,
1000.325,0.197999999999979,995,995,3,1,994,4.01446457952261,-0.27206523809582,4.01445642113686,
1000.335,0.20799999999997,995,995,3,1,994,3.91384664922953,-0.317169511690736,3.91383849084377,
1000.345,0.217999999999961,995,995,3,1,994,3.80464877933264,-0.364365065470338,3.80464062094688,
1000.355,0.227999999999952,995,995,3,1,994,3.6925670877099,-0.411857073195279,3.69255892932415,
1000.365,0.237999999999943,995,995,3,1,994,3.57974194921553,-0.457892846316099,3.57973381876946,
1000.375,0.247999999999934,995,995,3,1,994,3.46527063287795,-0.503081800416112,3.46526250243187,
1000.387,0.259999999999991,995,995,3,1,994.25,3.32537873648107,-0.55928582791239,3.32537060603499,
1000.397,0.269999999999982,995,995,3,1,994.25,3.20161127485335,-0.60776746366173,3.20160314440727,
1000.407,0.279999999999973,995,995,3,1,994.25,3.07933271862566,-0.654060617089272,3.07932458817959,
1000.417,0.289999999999964,995,995,3,1,994.25,2.95479414984584,-0.700999889522791,2.95478599146008,
1000.427,0.299999999999955,995,995,3,1,994.25,2.83229735679924,-0.746322721242905,2.83228922635317,
1000.437,0.309999999999945,995,995,3,1,994.25,2.70250151865184,-0.794258266687393,2.70249338820577,
1000.447,0.319999999999936,995,995,3,1,994.25,2.57580106146634,-0.839810692705214,2.57579293102026,
1000.457,0.329999999999927,995,995,3,1,994.25,2.44713745079935,-0.885532079264522,2.44712932035327,
1000.467,0.339999999999918,995,995,3,1,994.25,2.32089601457119,-0.929312212392688,2.32088785618544,
1000.477,0.349999999999909,995,995,3,1,994.25,2.1912251226604,-0.975620914250612,2.19121696427464,
1000.487,0.3599999999999,995,995,3,1,994.25,2.06097546033561,-1.02006243541837,2.06096732988954,
1000.497,0.370000000000005,995,995,3,1,994.25,1.93224898539484,-1.06369230896235,1.93224085494876,
1000.507,0.379999999999995,995,995,3,1,994.25,1.80344514548779,-1.10734750051051,1.80343698710203,
1000.517,0.389999999999986,995,995,3,1,994.25,1.67653139680624,-1.14884150680155,1.67652323842049,
1000.527,0.399999999999977,995,995,3,1,994.25,1.55246165581048,-1.18916493374854,1.5524535253644,
1000.537,0.409999999999968,995,995,3,1,994.25,1.42784401774406,-1.22913399711251,1.42783585935831,
1000.547,0.419999999999959,995,995,3,1,994.25,1.30183554254472,-1.2702535232529,1.30182741209865,
1000.557,0.42999999999995,995,995,3,1,994.25,1.17332808673382,-1.31128240376711,1.17331992834806,
1000.567,0.439999999999941,995,995,3,1,994.25,1.05058433488011,-1.35047190357,1.05057623237371,
1000.577,0.449999999999932,995,995,3,1,994.25,0.924613801762462,-1.39010583981872,0.924605671316385,
1000.587,0.459999999999923,995,995,3,1,994.25,0.799592100083828,-1.42955349758267,0.799583941698074,
1000.597,0.469999999999914,995,995,3,1,994.25,0.676258876919746,-1.46741865202785,0.678789205849171,
1000.607,0.479999999999905,995,995,3,1,994.25,0.550334891304374,-1.50770734064281,0.550326760858297,
1000.617,0.490000000000009,995,995,3,1,994.25,0.424600811675191,-1.54566935729235,0.424592681229115,
1000.627,0.5,995,995,3,1,994.5,0.301161920651793,-1.58328176476061,0.301153790205717,
1000.637,0.509999999999991,995,995,3,1,994.5,0.181630477309227,-1.61421964410692,0.181622318923473,
1000.641,0.51400000000001,995,995,3,1,994.5,0.146689899265766,-1.61818347871304,0.146681740880013,
1000.651,0.524000000000001,995,995,3,1,994.5,0.102305933833122,-1.60482455976307,0.102297775447369,
1000.657,0.529999999999973,995,995,3,1,994.5,0.0965848099440336,-1.58927331678569,0.0965766794979572,
1000.667,0.539999999999964,995,995,3,1,994.5,0.099933547899127,-1.56165867112577,0.0999254174530506,
1000.677,0.549999999999955,995,995,3,1,994.5,0.124994795769453,-1.52573606465012,0.124986637383699,
1000.687,0.559999999999945,995,995,3,1,994.5,0.178106110543013,-1.47994256112725,0.178097952157259,
1000.697,0.569999999999936,995,995,3,1,994.5,0.250773131847382,-1.42868959810585,0.250764973461628,
1000.707,0.579999999999927,995,995,3,1,994.5,0.333148157224059,-1.37656836770475,0.333140026777983,
1000.717,0.589999999999918,995,995,3,1,994.5,0.426622359082103,-1.32273124996573,0.426614228636026,
1000.727,0.599999999999909,995,995,3,1,994.5,0.531719578430056,-1.26595323439687,0.53171144798398,
1000.737,0.6099999999999,995,995,3,1,994.5,0.641212575137615,-1.21060291770846,0.641204416751862,
1000.747,0.620000000000005,995,995,3,1,994.5,0.756204351782799,-1.15426568780094,0.756196193397045,
1000.757,0.629999999999995,995,995,3,1,994.5,0.877194609493017,-1.09812714159489,0.877186451107263,
1000.767,0.639999999999986,995,995,3,1,994.5,1.00138736888766,-1.04165662545711,1.00137921050191,
1000.777,0.649999999999977,995,995,3,1,994.5,1.12871789373457,-0.986631475389004,1.1287097632885,
1000.787,0.659999999999968,995,995,3,1,994.5,1.25917724333704,-0.932568940334022,1.25916911289096,
1000.797,0.669999999999959,995,995,3,1,994.5,1.38898607343435,-0.87937599979341,1.3889779150486,
1000.807,0.67999999999995,995,995,3,1,994.5,1.52337709441781,-0.825714515522122,1.52336893603206,
1000.817,0.689999999999941,995,995,3,1,994.5,1.65617024526,-0.775041780434549,1.65616208687425,
1000.827,0.699999999999932,995,995,3,1,994.5,1.78864438086748,-0.72603558190167,1.78863622248173,
1000.837,0.709999999999923,995,995,3,1,994.5,1.92015431821346,-0.677028214558959,1.92014615982771,
1000.847,0.719999999999914,995,995,3,1,994.5,2.05362573266029,-0.628928956575692,2.05361757427454,
1000.857,0.729999999999905,995,995,3,1,994.5,2.18738587573171,-0.582191459834576,2.18737771734595,
1000.867,0.740000000000009,995,995,3,1,994.5,2.32173632830381,-0.535787069238722,2.32172816991806,
1000.877,0.75,995,995,3,1,994.75,2.45477953925729,-0.490904292091727,2.45477138087153,
1000.887,0.759999999999991,995,995,3,1,994.75,2.58857267908752,-0.446263561025262,2.58856454864144,
1000.897,0.769999999999982,995,995,3,1,994.75,2.71906974725425,-0.404531345702708,2.71906161680818,
1000.907,0.779999999999973,995,995,3,1,994.75,2.8470232989639,-0.364142246544361,2.84701516851783,
1000.917,0.789999999999964,995,995,3,1,994.75,2.97585088759661,-0.324053233489394,2.97584272921085,
1000.927,0.799999999999955,995,995,3,1,994.75,3.10068519786,-0.28659837320447,3.10067703947425,
1000.937,0.809999999999945,995,995,3,1,994.75,3.22268106043339,-0.249869809485972,3.22267290204763,
1000.947,0.819999999999936,995,995,3,1,994.75,3.34912346675992,-0.210311226546764,3.34911530837417,
1000.957,0.829999999999927,995,995,3,1,994.75,3.48126880824566,-0.169626022689044,3.4812606498599,
1000.967,0.839999999999918,995,995,3,1,994.75,3.60854954458773,-0.132850306108594,3.60854141414166,
1000.977,0.849999999999909,995,995,3,1,994.75,3.73341548256576,-0.0973718473687768,3.73340735211968,
1000.987,0.8599999999999,995,995,3,1,994.75,3.85889218188822,-0.0631718942895532,3.85888405144215,
1000.997,0.870000000000005,995,995,3,1,994.75,3.98940492421389,-0.0299745053052902,3.98939676582813,
1001.007,0.879999999999995,995,995,3,1,994.75,4.12951053120196,-0.00415024347603321,4.12950240075588,
1001.015,0.88799999999992,995,995,3,1,994.75,4.26002346910536,0.00130736269056797,4.26001533865929,
1001.025,0.897999999999911,995,995,3,1,994.75,4.46669418364763,1.58511102199554E-05,4.46668602526188,
1001.035,0.907999999999902,995,995,3,1,994.75,4.69253933988512,-0.00145386904478073,4.69253120943904,
1001.045,0.918000000000006,995,995,3,1,994.75,4.91795752197504,-0.00256235245615244,4.91794936358929,
1001.055,0.927999999999997,995,995,3,1,994.75,5.10382510721683,-0.0021140743046999,5.10381694883108,
1001.065,0.937999999999988,995,995,3,1,994.75,5.25003743357956,-0.00244578346610069,5.25002930313349,
1001.075,0.947999999999979,995,995,3,1,994.75,5.36656279116869,-0.00158039852976799,5.36655463278294,
1001.085,0.95799999999997,995,995,3,1,994.75,5.46816651709378,-0.00101062469184399,5.4681583866477,
1001.095,0.967999999999961,995,995,3,1,994.75,5.56828703731298,-0.000880728475749493,5.56827887892723,
1001.105,0.977999999999952,995,995,3,1,994.75,5.67449896596372,-0.000523710623383522,5.67449083551764,
1001.115,0.987999999999943,995,995,3,1,994.75,5.78907248564065,-0.00107752159237862,5.78906435519457,
1001.125,0.997999999999934,995,995,3,1,994.75,5.9098729211837,-0.000902200117707253,5.90986479073763,
1001.127,1,995,995,3,1,995,5.93459168449044,-0.00109390821307898,5.93458352610469,
1001.137,0.00999999999999091,996,996,3,1,995,6.05170953087509,-0.00405892729759216,6.05170140042901,
1001.146,0.0190000000000055,996,996,3,1,995,6.09454533085227,-0.00503219664096832,6.09453717246652,
1001.164,0.0369999999999209,996,996,3,1,995,5.92323565855622,-0.0041468720883131,5.92322750017047,
1001.174,0.0469999999999118,996,996,3,1,995,5.69876421242952,-0.00226052477955818,5.69875605404377,
1001.184,0.0569999999999027,996,996,3,1,995,5.4512157663703,-0.000214190222322941,5.45120760798454,
1001.194,0.0670000000000073,996,996,3,1,995,5.2199318446219,0.000477689318358898,5.21992368623614,
1001.21,0.08299999999997,996,996,3,1,995,4.93659110739827,0.000281538814306259,4.93658294901252,
1001.22,0.0929999999999609,996,996,3,1,995,4.81377144344151,-4.79863956570625E-05,4.81376331299543,
1001.23,0.102999999999952,996,996,3,1,995,4.71337971277535,-0.00100087374448776,4.71527315676212,
1001.24,0.112999999999943,996,996,3,1,995,4.62127259932458,-0.00928912311792374,4.62126446887851,
1001.25,0.122999999999934,996,996,3,1,995,4.55329547636211,-0.0281607871875167,4.55328734591603,
1001.26,0.132999999999925,996,996,3,1,995,4.50156091712415,-0.0483484985306859,4.50155278667808,
1001.27,0.142999999999915,996,996,3,1,995,4.44682245142758,-0.0721790688112378,4.4468143209815,
1001.28,0.152999999999906,996,996,3,1,995,4.3830263055861,-0.101849399507046,4.38301814720035,
1001.29,0.163000000000011,996,996,3,1,995,4.31119155138731,-0.136193912476301,4.31118339300156,
1001.3,0.173000000000002,996,996,3,1,995,4.2316413950175,-0.173991303890944,4.23163326457143,
1001.31,0.182999999999993,996,996,3,1,995,4.1474236920476,-0.212434874847531,4.14741553366184,
1001.32,0.192999999999984,996,996,3,1,995,4.0591592900455,-0.252175335772336,4.05915113165975,
1001.33,0.202999999999975,996,996,3,1,995,3.96403203718364,-0.294649708084762,3.96402390673757,
1001.34,0.212999999999965,996,996,3,1,995,3.85911374352872,-0.340888444334269,3.85910561308265,
1001.35,0.222999999999956,996,996,3,1,995,3.74649577774107,-0.389049067161977,3.746487647295,
1001.36,0.232999999999947,996,996,3,1,995,3.63554656505585,-0.434730425477028,3.63553840667009,
1001.37,0.242999999999938,996,996,3,1,995,3.52079833857715,-0.48115833196789,3.52079020813107,
1001.387,0.259999999999991,996,996,3,1,995.25,3.32417950965464,-0.559767852537334,3.32417137920856,
1001.397,0.269999999999982,996,996,3,1,995.25,3.19981344044209,-0.608295346610248,3.19980528205633,
1001.407,0.279999999999973,996,996,3,1,995.25,3.07588778436184,-0.6555066537112,3.07587962597609,
1001.417,0.289999999999964,996,996,3,1,995.25,2.95294526964426,-0.70130973123014,2.95293711125851,
1001.427,0.299999999999955,996,996,3,1,995.25,2.83172498457134,-0.745402909815311,2.83171685412526,
1001.437,0.309999999999945,996,996,3,1,995.25,2.70421567372978,-0.793321505188942,2.7042075432837,
1001.447,0.319999999999936,996,996,3,1,995.25,2.57547344081104,-0.839666542597115,2.57546531036496,
1001.457,0.329999999999927,996,996,3,1,995.25,2.44808088988066,-0.885355481877923,2.4480727314949,
1001.467,0.339999999999918,996,996,3,1,995.25,2.31935167685151,-0.930278920568526,2.31934357434511,
1001.477,0.349999999999909,996,996,3,1,995.25,2.18998848460615,-0.975927608087659,2.18998035416007,
1001.487,0.3599999999999,996,996,3,1,995.25,2.0588337443769,-1.02109232451767,2.05882558599114,
1001.497,0.370000000000005,996,996,3,1,995.25,1.92941045388579,-1.06490737758577,1.92940229550004,
1001.507,0.379999999999995,996,996,3,1,995.25,1.80360331200063,-1.10560018569231,1.80359518155456,
1001.517,0.389999999999986,996,996,3,1,995.25,1.67800510302186,-1.14805236458778,1.67799694463611,
1001.527,0.399999999999977,996,996,3,1,995.25,1.55044952407479,-1.18900142144412,1.55044136568904,
1001.537,0.409999999999968,996,996,3,1,995.25,1.42594252713025,-1.23011547606438,1.42593439668417,
1001.547,0.419999999999959,996,996,3,1,995.25,1.30221085622907,-1.26951540820301,1.30220269784331,
1001.557,0.42999999999995,996,996,3,1,995.25,1.17443270981312,-1.31136850919574,1.17442455142736,
1001.567,0.439999999999941,996,996,3,1,995.25,1.04864216409624,-1.3512398255989,1.04863403365016,
1001.577,0.449999999999932,996,996,3,1,995.25,0.925355963408947,-1.38905081897974,0.925347805023193,
1001.587,0.459999999999923,996,996,3,1,995.25,0.80246452242136,-1.42767604440451,0.802456364035606,
1001.597,0.469999999999914,996,996,3,1,995.25,0.677388226613402,-1.4673201367259,0.677380096167326,
1001.607,0.479999999999905,996,996,3,1,995.25,0.549738127738237,-1.50784713216126,0.549729969352484,
1001.617,0.490000000000009,996,996,3,1,995.25,0.427053943276405,-1.54438954778016,0.427045784890652,
1001.627,0.5,996,996,3,1,995.5,0.302350670099258,-1.58242071047425,0.302342511713505,
1001.637,0.509999999999991,996,996,3,1,995.5,0.182527229189873,-1.61411412525922,0.182519070804119,
1001.641,0.51400000000001,996,996,3,1,995.5,0.146143594756722,-1.61800618283451,0.146135464310646,
1001.651,0.524000000000001,996,996,3,1,995.5,0.102840028703213,-1.60494460724294,0.102831870317459,
1001.658,0.530999999999949,996,996,3,1,995.5,0.0961875077337027,-1.58686702605337,0.0961793772876263,
1001.668,0.54099999999994,996,996,3,1,995.5,0.100775063037872,-1.55882840976119,0.100766904652119,
1001.678,0.550999999999931,996,996,3,1,995.5,0.13150873593986,-1.52052062563598,0.131500605493784,
1001.688,0.560999999999922,996,996,3,1,995.5,0.184357948601246,-1.47467663511634,0.184349790215492,
1001.698,0.570999999999913,996,996,3,1,995.5,0.257540429010987,-1.42448514234275,0.257532298564911,
1001.708,0.580999999999904,996,996,3,1,995.5,0.342928022146225,-1.3710127864033,0.342919863760471,
1001.718,0.591000000000008,996,996,3,1,995.5,0.436603892594576,-1.31689571309835,0.436595734208822,
1001.728,0.600999999999999,996,996,3,1,995.5,0.541050536558032,-1.2616220721975,0.541042406111956,
1001.738,0.61099999999999,996,996,3,1,995.5,0.649815732613206,-1.20563770178705,0.64980760216713,
1001.748,0.620999999999981,996,996,3,1,995.5,0.768644465133548,-1.14803953096271,0.768636334687471,
1001.758,0.630999999999972,996,996,3,1,995.5,0.88924890384078,-1.0925421398133,0.889240745455027,
1001.768,0.640999999999963,996,996,3,1,995.5,1.01426688954234,-1.03586307261139,1.01425873115659,
1001.778,0.650999999999954,996,996,3,1,995.5,1.14099405705929,-0.981108043342829,1.14098589867353,
1001.788,0.660999999999945,996,996,3,1,995.5,1.27193139865994,-0.926972161978483,1.27192324027419,
1001.798,0.670999999999935,996,996,3,1,995.5,1.40504932031035,-0.872475011274219,1.4050411619246,
1001.808,0.680999999999926,996,996,3,1,995.5,1.5342775080353,-0.822557439096272,1.53426937758923,
1001.818,0.690999999999917,996,996,3,1,995.5,1.66656989604235,-0.77085992321372,1.66656173765659,
1001.828,0.700999999999908,996,996,3,1,995.5,1.80373655632138,-0.719215520657599,1.80372839793563,
1001.838,0.710999999999899,996,996,3,1,995.5,1.9379201810807,-0.670447438023984,1.93791205063462,
1001.848,0.721000000000004,996,996,3,1,995.5,2.069121748209,-0.624275971204042,2.06911358982325,
1001.858,0.730999999999995,996,996,3,1,995.5,2.2017561737448,-0.577406939119101,2.20174804329872,
1001.868,0.740999999999985,996,996,3,1,995.5,2.33516762964427,-0.530925532802939,2.3351594991982,
1001.887,0.759999999999991,996,996,3,1,995.75,2.58724277839065,-0.447302157990634,2.58723462000489,
1001.897,0.769999999999982,996,996,3,1,995.75,2.71712335757911,-0.405731801874936,2.71711522713304,
1001.907,0.779999999999973,996,996,3,1,995.75,2.84172990359366,-0.365833616815507,2.84172177314758,
1001.917,0.789999999999964,996,996,3,1,995.75,2.97604076564312,-0.323679014109075,2.97603260725737,
1001.927,0.799999999999955,996,996,3,1,995.75,3.10030907392502,-0.286556570790708,3.10030091553926,
1001.937,0.809999999999945,996,996,3,1,995.75,3.22265490889549,-0.249331728555262,3.22264675050974,
1001.947,0.819999999999936,996,996,3,1,995.75,3.35114434361458,-0.209978609345853,3.35113618522882,
1001.957,0.829999999999927,996,996,3,1,995.75,3.48077950067818,-0.170546779409051,3.48077137023211,
1001.967,0.839999999999918,996,996,3,1,995.75,3.60784342512488,-0.13313832692802,3.60783526673913,
1001.977,0.849999999999909,996,996,3,1,995.75,3.73100224882364,-0.0984252570196986,3.73099409043789,
1001.987,0.8599999999999,996,996,3,1,995.75,3.85931052267551,-0.0627526687458158,3.85930236428976,
1001.997,0.870000000000005,996,996,3,1,995.75,3.98933705873787,-0.0301387812942266,3.9893289282918,
1002.007,0.879999999999995,996,996,3,1,995.75,4.13084018044174,-0.00397501979023218,4.13083204999566,
1002.017,0.889999999999986,996,996,3,1,995.75,4.29636913351715,0.00165980774909258,4.29636100307107,
1002.018,0.890999999999963,996,996,3,1,995.75,4.31605073623359,0.00183381140232086,4.31604260578752,
1002.028,0.900999999999954,996,996,3,1,995.75,4.53713776543736,-0.000428445637226105,4.53712960705161,
1002.038,0.910999999999945,996,996,3,1,995.75,4.77194521576166,-0.00205588061362505,4.77193705737591,
1002.048,0.920999999999935,996,996,3,1,995.75,4.98567477799952,-0.0029367720708251,4.98566664755344,
1002.058,0.930999999999926,996,996,3,1,995.75,5.15685455873609,-0.00253238249570131,5.15684640035033,
1002.068,0.940999999999917,996,996,3,1,995.75,5.29002757743001,-0.00215076375752687,5.29001941904426,
1002.078,0.950999999999908,996,996,3,1,995.75,5.39820145815611,-0.00121156219393015,5.39819329977036,
1002.088,0.960999999999899,996,996,3,1,995.75,5.49563208594918,-0.000883364118635654,5.49562392756343,
1002.098,0.971000000000004,996,996,3,1,995.75,5.59696870855987,-0.00106349587440491,5.59696057811379,
1002.108,0.980999999999995,996,996,3,1,995.75,5.70287198759615,-0.000390815548598766,5.70286385715008,
