"Total Time (s)","Cycle Elapsed Time (s)","Total Cycles","Elapsed Cycles","Step","Loop 1","Total Cycle Count(Linear Waveform)","Position(Linear:Position) (mm)","Force(Linear:Load) (kN)","Displacement(Linear:Digital Position) (mm)",
6.189,0,1,1,3,1,0,11.3283678609878,-0.0200844742357731,11.3283785618842,
6.199,0.00999999999999979,1,1,3,1,0,11.328292619437,-0.0200445763766766,11.3283032923937,
6.211,0.0220000000000002,1,1,3,1,0,11.3276090472937,-0.0204967800527811,11.3276197202504,
6.221,0.032,1,1,3,1,0,11.3214698899537,-0.0219077290967107,11.3216941058636,
6.231,0.0419999999999998,1,1,3,1,0,11.3057255744934,-0.0256064906716347,11.3057362474501,
6.241,0.0520000000000005,1,1,3,1,0,11.2759453430772,-0.0314912619069219,11.2759560719132,
6.251,0.0620000000000003,1,1,3,1,0,11.2314011994749,-0.039902264252305,11.2314119003713,
6.261,0.0720000000000001,1,1,3,1,0,11.1744439601898,-0.0502902967855334,11.1744546890259,
6.271,0.0819999999999999,1,1,3,1,0,11.1063983011991,-0.0631368299946189,11.1064090020955,
6.281,0.0919999999999996,1,1,3,1,0,11.0266033932567,-0.0776084046810865,11.0266140662134,
6.291,0.102,1,1,3,1,0,10.9365064278245,-0.0950350193306804,10.9365171007812,
6.301,0.112,1,1,3,1,0,10.8297591749579,-0.114741665311158,10.8297698758543,
6.311,0.122,1,1,3,1,0,10.7099175173789,-0.136763639748096,10.7099282182753,
6.321,0.132,1,1,3,1,0,10.5802806001157,-0.159799978137016,10.5829720012844,
6.331,0.142,1,1,3,1,0,10.4394345078617,-0.185045055113733,10.4394452087581,
6.341,0.152,1,1,3,1,0,10.2839849330485,-0.211795074865222,10.2839956060052,
6.351,0.162,1,1,3,1,0,10.1165538467467,-0.241113975644112,10.1165645197034,
6.361,0.172,1,1,3,1,0,9.92835950106382,-0.271487166173756,9.93214236572385,
6.371,0.182,1,1,3,1,0,9.73689925856888,-0.303957620635629,9.73690995946526,
6.381,0.192,1,1,3,1,0,9.52296065166592,-0.337220993824303,9.52297138050199,
6.389,0.2,1,1,3,1,0,9.35013460926712,-0.363161843270063,9.35456391423941,
6.399,0.21,1,1,3,1,0,9.13060588762164,-0.394229898229241,9.13061656057834,
6.409,0.22,1,1,3,1,0,8.9291702862829,-0.418253187090158,8.92918098717928,
6.419,0.23,1,1,3,1,0,8.76438793726265,-0.435066954232752,8.76439863815903,
6.429,0.24,1,1,3,1,0,8.62212619744241,-0.447888653725386,8.62213689833879,
6.439,0.25,1,1,3,1,0.25,8.49052403122187,-0.459341071546078,8.49053470417857,
6.449,0.26,1,1,3,1,0.25,8.3641261048615,-0.470459773205221,8.3641367778182,
6.459,0.27,1,1,3,1,0.25,8.2418146636337,-0.481654601171613,8.24182536453009,
6.469,0.28,1,1,3,1,0.25,8.11913858167827,-0.492458548396826,8.12162697315216,
6.479,0.29,1,1,3,1,0.25,8.00007892772555,-0.503465123474598,8.00008960068226,
6.489,0.3,1,1,3,1,0.25,7.87751748226583,-0.514262677170336,7.87995178252458,
6.499,0.310000000000001,1,1,3,1,0.25,7.75712795555592,-0.525897075422108,7.75713868439197,
6.509,0.32,1,1,3,1,0.25,7.63120436109602,-0.53761865478009,7.63121506199241,
6.519,0.33,1,1,3,1,0.25,7.50209773890674,-0.549281449057162,7.50459769740701,
6.529,0.34,1,1,3,1,0.25,7.38190778531134,-0.559329786337912,7.38191848620772,
6.539,0.35,1,1,3,1,0.25,7.25936785340309,-0.570103568024933,7.2593785263598,
6.549,0.36,1,1,3,1,0.25,7.13693202473223,-0.580050852149725,7.13694272562861,
6.559,0.37,1,1,3,1,0.25,7.01676453463733,-0.589638287201524,7.01911143958569,
6.569,0.38,1,1,3,1,0.25,6.90095669589937,-0.598253537900746,6.90328566357493,
6.579,0.39,1,1,3,1,0.25,6.78388779982924,-0.608529020100832,6.78389847278595,
6.589,0.4,1,1,3,1,0.25,6.65866842493415,-0.61846349388361,6.65867909789085,
6.599,0.41,1,1,3,1,0.25,6.53584468178451,-0.628432440571487,6.53585538268089,
6.609,0.42,1,1,3,1,0.25,6.41275336034596,-0.637756413780153,6.41276406124234,
6.619,0.43,1,1,3,1,0.25,6.29110978916287,-0.647369832731783,6.29112046211958,
6.629,0.44,1,1,3,1,0.25,6.16787047125399,-0.656138970516622,6.16788117215037,
6.639,0.45,1,1,3,1,0.25,6.04634497314691,-0.665158773772419,6.04635570198298,
6.649,0.46,1,1,3,1,0.25,5.9244804829359,-0.673309583216906,5.92687234282494,
6.659,0.47,1,1,3,1,0.25,5.8023476600647,-0.682011893950403,5.80481579527259,
6.669,0.48,1,1,3,1,0.25,5.68207620643079,-0.690513160079718,5.68208690732717,
6.679,0.49,1,1,3,1,0.25,5.55804340168834,-0.698838750831783,5.56046169251203,
6.689,0.5,1,1,3,1,0.5,5.43982475996017,-0.706590861082077,5.43983543291688,
6.697,0.508,1,1,3,1,0.5,5.34337067976594,-0.710665518417954,5.345504488796,
6.707,0.518,1,1,3,1,0.5,5.27343029156327,-0.704288398846984,5.27344102039933,
6.71,0.521,1,1,3,1,0.5,5.26923512108624,-0.700167831964791,5.26924582198262,
6.72,0.531,1,1,3,1,0.5,5.29051319696009,-0.680942926555872,5.29052389785647,
6.73,0.541,1,1,3,1,0.5,5.37986012175679,-0.653165741823614,5.37760701030493,
6.74,0.551,1,1,3,1,0.5,5.50767981447279,-0.621258723549545,5.50493521615863,
6.75,0.561,1,1,3,1,0.5,5.65218513831496,-0.590728311799467,5.65219581127167,
6.76,0.571,1,1,3,1,0.5,5.7992403768003,-0.562533820047975,5.799251049757,
6.77,0.581,1,1,3,1,0.5,5.95258402638137,-0.535747832618654,5.94964446499944,
6.78,0.591,1,1,3,1,0.5,6.09778113663197,-0.511193610727787,6.09779180958867,
6.79,0.601,1,1,3,1,0.5,6.23654086142778,-0.489086229354143,6.23376628383994,
6.8,0.611,1,1,3,1,0.5,6.3768423255533,-0.467636832036078,6.37403693050146,
6.81,0.621,1,1,3,1,0.5,6.51503445580602,-0.447126524522901,6.51231592521071,
6.82,0.631,1,1,3,1,0.5,6.64844376035035,-0.428324472159147,6.64845446124673,
6.83,0.641,1,1,3,1,0.5,6.77991765551269,-0.41052324231714,6.77728682756424,
6.84,0.651,1,1,3,1,0.5,6.91202986054122,-0.392194795422256,6.91204056143761,
6.85,0.661,1,1,3,1,0.5,7.04314911738038,-0.375342313200235,7.04315979033708,
6.86,0.671,1,1,3,1,0.5,7.16941497288644,-0.359120690263808,7.16942567378282,
6.87,0.681,1,1,3,1,0.5,7.29897963814437,-0.343029014766216,7.29899033904076,
6.88,0.691,1,1,3,1,0.5,7.43045870214701,-0.327062979340553,7.43046937510371,
6.89,0.701000000000001,1,1,3,1,0.5,7.55480571649969,-0.311960838735104,7.55481641739607,
6.9,0.711,1,1,3,1,0.5,7.68270657397807,-0.297608161345124,7.68025293946266,
6.91,0.721,1,1,3,1,0.5,7.80571575276554,-0.282808924093843,7.80572645366192,
6.92,0.731,1,1,3,1,0.5,7.93055620975793,-0.268784607760608,7.93056691065431,
6.93,0.741,1,1,3,1,0.5,8.05092441849411,-0.25528643745929,8.05093511939049,
6.949,0.76,1,1,3,1,0.75,8.27854391187429,-0.230410094372928,8.278554584831,
6.959,0.77,1,1,3,1,0.75,8.40232380665839,-0.21746413782239,8.39993482455611,
6.969,0.78,1,1,3,1,0.75,8.52279078215361,-0.203677169047296,8.52280145511031,
6.979,0.79,1,1,3,1,0.75,8.64479318261147,-0.190795692615211,8.64480391144753,
6.989,0.8,1,1,3,1,0.75,8.76326775178313,-0.178113542497158,8.76327842473984,
6.999,0.810000000000001,1,1,3,1,0.75,8.88780724257231,-0.165158058516681,8.88534067198634,
7.009,0.82,1,1,3,1,0.75,9.00877903215587,-0.152375414036214,9.00641648098826,
7.019,0.83,1,1,3,1,0.75,9.12451104260981,-0.140202944166958,9.12452174350619,
7.029,0.84,1,1,3,1,0.75,9.24267458729446,-0.127891930751503,9.24268528819084,
7.039,0.850000000000001,1,1,3,1,0.75,9.3622886762023,-0.115368971601129,9.36229940503836,
7.049,0.86,1,1,3,1,0.75,9.48433049954474,-0.102622681297362,9.48434120044112,
7.059,0.87,1,1,3,1,0.75,9.60471130907536,-0.0901476200670004,9.60472203791142,
7.069,0.88,1,1,3,1,0.75,9.72379063256085,-0.0774395512416959,9.72380133345723,
7.079,0.89,1,1,3,1,0.75,9.84506978653371,-0.0648323027417064,9.8450804874301,
7.089,0.9,1,1,3,1,0.75,9.96901111677289,-0.0522565841674805,9.96902178972959,
7.099,0.91,1,1,3,1,0.75,10.0918237119913,-0.0398275069892406,10.091834384948,
7.109,0.92,1,1,3,1,0.75,10.2146539930254,-0.0275161443278193,10.2146646939218,
7.119,0.93,1,1,3,1,0.75,10.3423073329031,-0.0160968862473965,10.3423180058599,
7.129,0.94,1,1,3,1,0.75,10.4671260528266,-0.00611458905041218,10.4671367257833,
7.139,0.95,1,1,3,1,0.75,10.5998505838215,-0.00090945977717638,10.5971810035408,
7.149,0.96,1,1,3,1,0.75,10.7357996050268,-0.00016240868717432,10.7358103059232,
7.151,0.962,1,1,3,1,0.75,10.7648215256631,1.65216624736786E-05,10.7648321986198,
7.161,0.972,1,1,3,1,0.75,10.9195377398282,-0.000404035672545433,10.9195484407246,
7.171,0.982,1,1,3,1,0.75,11.0744024254382,-0.00130935572087765,11.0744131542742,
7.181,0.992,1,1,3,1,0.75,11.2142189126462,-0.00105557031929493,11.2142296135426,
7.189,1,1,1,3,1,1,11.3205556198955,-0.00093621201813221,11.3180526159704,
7.199,0.00999999999999979,2,2,3,1,1,11.4344245009124,-0.00368835870176554,11.4344351738691,
7.208,0.0190000000000001,2,2,3,1,1,11.4750923216343,-0.00462924595922232,11.475102994591,
7.218,0.0289999999999999,2,2,3,1,1,11.4225825481117,-0.00525273848325014,11.4225932210684,
7.228,0.0389999999999997,2,2,3,1,1,11.2573464587331,-0.00386506784707308,11.2573571875691,
7.238,0.0490000000000004,2,2,3,1,1,11.0142405610532,-0.00105159357190132,11.0142512619495,
7.248,0.0590000000000002,2,2,3,1,1,10.7688187155873,-0.0220487266778946,10.7688294164836,
7.258,0.069,2,2,3,1,1,10.6133862957358,-0.0520172249525785,10.6133969686925,
7.268,0.0789999999999997,2,2,3,1,1,10.5242450349033,-0.0687868800014257,10.5242557637393,
7.278,0.0890000000000004,2,2,3,1,1,10.4481039941311,-0.083534992299974,10.4481146670878,
7.288,0.0990000000000002,2,2,3,1,1,10.3558844793588,-0.100514842197299,10.3558951802552,
7.298,0.109,2,2,3,1,1,10.2449132502079,-0.12068735435605,10.244923979044,
7.308,0.119,2,2,3,1,1,10.1308263279498,-0.141045521013439,10.1308370009065,
7.318,0.129,2,2,3,1,1,10.0117347668856,-0.160907632671297,10.0141716375947,
7.328,0.139,2,2,3,1,1,9.89061115309596,-0.180704137310386,9.89062182605267,
7.338,0.149,2,2,3,1,1,9.77070252411067,-0.199884357862175,9.77071322500706,
7.348,0.159,2,2,3,1,1,9.64920940808952,-0.218932428397238,9.6492201089859,
7.358,0.169,2,2,3,1,1,9.52244438230991,-0.238012429326773,9.52245505526662,
7.368,0.179,2,2,3,1,1,9.4013690482825,-0.255906642414629,9.40137974917888,
7.378,0.189,2,2,3,1,1,9.28002725355327,-0.273126917891204,9.28003795444965,
7.388,0.199,2,2,3,1,1,9.15433111600578,-0.291122104972601,9.15434181690216,
7.398,0.209000000000001,2,2,3,1,1,9.03003249317408,-0.307960892096162,9.03004322201014,
7.408,0.219,2,2,3,1,1,8.90776972286403,-0.324345668777823,8.90778042376041,
7.418,0.229,2,2,3,1,1,8.78543752245605,-0.340182823128998,8.78544822335243,
7.428,0.239,2,2,3,1,1,8.66323300637305,-0.356223294511437,8.6657165363431,
7.438,0.249,2,2,3,1,1,8.54249783791601,-0.371416034176946,8.5425085388124,
7.449,0.26,2,2,3,1,1.25,8.40624340809882,-0.388314542360604,8.4062541089952,
7.459,0.27,2,2,3,1,1.25,8.28324811533093,-0.40326424408704,8.28325884416699,
7.469,0.28,2,2,3,1,1.25,8.15956986509264,-0.417744219303131,8.15958056598902,
7.479,0.29,2,2,3,1,1.25,8.03384634666145,-0.432328921742737,8.03629349917173,
7.489,0.3,2,2,3,1,1.25,7.91442423127592,-0.44610729906708,7.9144349321723,
7.499,0.310000000000001,2,2,3,1,1.25,7.78844330459833,-0.460734916850924,7.78845397755504,
7.509,0.32,2,2,3,1,1.25,7.65762655064464,-0.475124227814376,7.6576372794807,
7.519,0.33,2,2,3,1,1.25,7.53195133991539,-0.488590556196868,7.53447353839874,
7.529,0.34,2,2,3,1,1.25,7.40930389612913,-0.501414053142071,7.40931456908584,
7.539,0.350000000000001,2,2,3,1,1.25,7.2857144381851,-0.514282304793596,7.28572513908148,
7.549,0.36,2,2,3,1,1.25,7.16087085194886,-0.526658399030566,7.16088155284524,
7.559,0.37,2,2,3,1,1.25,7.03561739064753,-0.538998288102448,7.03803140670061,
7.569,0.38,2,2,3,1,1.25,6.91783248446882,-0.549979847855866,6.9178431853652,
7.579,0.39,2,2,3,1,1.25,6.79695353843272,-0.561225451529026,6.7993414029479,
7.589,0.4,2,2,3,1,1.25,6.67589069344103,-0.572263714857399,6.67833080515265,
7.599,0.41,2,2,3,1,1.25,6.55569235794246,-0.583529593423009,6.55809609219432,
7.609,0.42,2,2,3,1,1.25,6.43730588257313,-0.594180612824857,6.43731655552983,
7.619,0.43,2,2,3,1,1.25,6.31475429981947,-0.60583237092942,6.31476497277617,
7.629,0.44,2,2,3,1,1.25,6.1904345266521,-0.616489066742361,6.1904451996088,
7.639,0.45,2,2,3,1,1.25,6.06683956459165,-0.626924545504153,6.06924243271351,
7.649,0.46,2,2,3,1,1.25,5.94542850740254,-0.637503410689533,5.94786867499351,
7.659,0.47,2,2,3,1,1.25,5.82630199380219,-0.647305371239781,5.82631269469857,
7.669,0.48,2,2,3,1,1.25,5.69959578104317,-0.657882299274206,5.69960648193955,
7.679,0.49,2,2,3,1,1.25,5.57410933077335,-0.667890077456832,5.57660574093461,
7.689,0.5,2,2,3,1,1.5,5.45406829565763,-0.677325460128486,5.45407902449369,
7.697,0.508,2,2,3,1,1.5,5.35848140716553,-0.681956522166729,5.35849208012223,
7.707,0.518,2,2,3,1,1.5,5.28849771246314,-0.677180797792971,5.2885084412992,
7.711,0.522,2,2,3,1,1.5,5.28351746499538,-0.672347531653941,5.28352813795209,
7.721,0.532,2,2,3,1,1.5,5.31180113554001,-0.651791859418154,5.31181186437607,
7.731,0.542,2,2,3,1,1.5,5.40432921610773,-0.62451581005007,5.40433991700411,
7.741,0.552,2,2,3,1,1.5,5.53491856902838,-0.593930976465344,5.53220573812723,
7.751,0.562,2,2,3,1,1.5,5.67706637084484,-0.563933551311493,5.67707704380155,
7.761,0.572,2,2,3,1,1.5,5.82766489125788,-0.535220853053033,5.82464447245002,
7.771,0.582,2,2,3,1,1.5,5.97533687017858,-0.50960379652679,5.97246006131172,
7.781,0.592000000000001,2,2,3,1,1.5,6.11625599674881,-0.486191674135625,6.11348401755094,
7.791,0.602,2,2,3,1,1.5,6.25557906925678,-0.464127911254764,6.25558974221349,
7.801,0.612,2,2,3,1,1.5,6.39455233700573,-0.443067033775151,6.39456303790212,
7.811,0.622,2,2,3,1,1.5,6.53040482662618,-0.423594522289932,6.52770498767495,
7.821,0.632,2,2,3,1,1.5,6.66295043192804,-0.404796497896314,6.6603353060782,
7.831,0.642,2,2,3,1,1.5,6.79502109065652,-0.386212980374694,6.79503176361322,
7.841,0.652,2,2,3,1,1.5,6.9258950650692,-0.368591146543622,6.9259057380259,
7.851,0.662,2,2,3,1,1.5,7.05983106046915,-0.351284830830991,7.05984178930521,
7.861,0.672,2,2,3,1,1.5,7.18795283697546,-0.335430144332349,7.18796353787184,
7.871,0.682,2,2,3,1,1.5,7.31332898139954,-0.319994245655835,7.31333965435624,
7.881,0.692,2,2,3,1,1.5,7.44120622985065,-0.304390080273151,7.44121693074703,
7.891,0.702,2,2,3,1,1.5,7.56596761755645,-0.289413211867213,7.56597831845283,
7.901,0.712,2,2,3,1,1.5,7.69208544865251,-0.274880914948881,7.69209617748857,
7.911,0.722,2,2,3,1,1.5,7.81856610439718,-0.260063381865621,7.81603960320353,
7.921,0.732,2,2,3,1,1.5,7.94472078792751,-0.245698918588459,7.94473148882389,
7.931,0.742,2,2,3,1,1.5,8.06771982461214,-0.232402291148901,8.06531343609095,
7.941,0.752,2,2,3,1,1.75,8.18466103635728,-0.220046653412282,8.18467173725367,
7.951,0.762,2,2,3,1,1.75,8.30400383099913,-0.206726002506912,8.30401450395584,
7.961,0.772,2,2,3,1,1.75,8.42635086737573,-0.193650214932859,8.42636156827211,
7.971,0.782,2,2,3,1,1.75,8.55001771822572,-0.180190773680806,8.55002839118242,
7.981,0.792,2,2,3,1,1.75,8.67307531647384,-0.167424520477653,8.67308601737022,
7.991,0.802,2,2,3,1,1.75,8.79313585348427,-0.154509209096432,8.79314655438065,
8.001,0.811999999999999,2,2,3,1,1.75,8.91373794525862,-0.142046348191798,8.91374861821532,
8.011,0.822000000000001,2,2,3,1,1.75,9.03279259800911,-0.129578057676554,9.03280332684517,
8.021,0.832000000000001,2,2,3,1,1.75,9.15078624151647,-0.117726256139576,9.15079694241285,
8.031,0.842000000000001,2,2,3,1,1.75,9.26899373531342,-0.10538783390075,9.26900440827012,
8.041,0.852,2,2,3,1,1.75,9.38943042419851,-0.0930037815123796,9.38699517399073,
8.051,0.862,2,2,3,1,1.75,9.51211614534259,-0.080098295584321,9.51212681829929,
8.061,0.872,2,2,3,1,1.75,9.63265853002667,-0.0678396224975586,9.63266920298338,
8.071,0.882,2,2,3,1,1.75,9.75303207524121,-0.055672456510365,9.750607162714,
8.081,0.891999999999999,2,2,3,1,1.75,9.87539629451931,-0.0431405380368233,9.87540699541569,
8.091,0.901999999999999,2,2,3,1,1.75,9.99974808655679,-0.0311605120077729,9.99727226793766,
8.101,0.912000000000001,2,2,3,1,1.75,10.122706387192,-0.0193239795044065,10.1227170601487,
8.111,0.922000000000001,2,2,3,1,1.75,10.248647024855,-0.0089133158326149,10.2486577257514,
8.121,0.932,2,2,3,1,1.75,10.3786693979055,-0.00165231991559267,10.3786800988019,
8.13,0.941000000000001,2,2,3,1,1.75,10.5013322364539,-0.000308169983327389,10.5013429373503,
8.14,0.951000000000001,2,2,3,1,1.75,10.6502056214958,-0.000542420893907547,10.6502163223922,
8.15,0.961,2,2,3,1,1.75,10.8010463230312,-0.000832406803965569,10.8010569959879,
8.16,0.971,2,2,3,1,1.75,10.9523310698569,-0.000831489451229572,10.9494166821241,
8.17,0.981,2,2,3,1,1.75,11.0896638035774,-0.0012656208127737,11.0896745324135,
8.18,0.991,2,2,3,1,1.75,11.2171966396272,-0.00123608391731977,11.2172073125839,
8.189,1,2,2,3,1,2,11.3199090678245,-0.00101005658507347,11.3176853768527,
8.199,0.00999999999999979,3,3,3,1,2,11.4218042325228,-0.0035227183252573,11.4218149334192,
8.207,0.0180000000000007,3,3,3,1,2,11.4545257296413,-0.00449361279606819,11.4545364305377,
8.217,0.0280000000000005,3,3,3,1,2,11.4104952011257,-0.00537528656423092,11.4105059020221,
8.227,0.0380000000000003,3,3,3,1,2,11.2552254181355,-0.00382300466299057,11.2552361190319,
8.237,0.048,3,3,3,1,2,11.0203100647777,-0.00116738025099039,11.0203207656741,
8.252,0.0630000000000006,3,3,3,1,2,10.6516903359443,-0.0191172072663903,10.6517010368407,
8.262,0.0730000000000004,3,3,3,1,2,10.5114412028342,-0.0459690578281879,10.5114519037306,
8.272,0.0830000000000002,3,3,3,1,2,10.4348882194608,-0.0607582228258252,10.4348989203572,
8.282,0.093,3,3,3,1,2,10.3677354566753,-0.0734930252656341,10.3692146390676,
8.292,0.103,3,3,3,1,2,10.2816984895617,-0.0898845447227359,10.2817091904581,
8.302,0.113,3,3,3,1,2,10.17662929371,-0.109129152260721,10.1766399666667,
8.312,0.122999999999999,3,3,3,1,2,10.06417600438,-0.129111669957638,10.0641866773367,
8.322,0.133000000000001,3,3,3,1,2,9.94787729345262,-0.148732746019959,9.947887994349,
8.332,0.143000000000001,3,3,3,1,2,9.83026446774602,-0.167811983264983,9.83027514070272,
8.342,0.153,3,3,3,1,2,9.71035614609718,-0.187266860157251,9.7127952799201,
8.352,0.163,3,3,3,1,2,9.58810737356544,-0.205897437408566,9.59058975800872,
8.362,0.173,3,3,3,1,2,9.46664420887828,-0.224846759811044,9.46665488183498,
8.372,0.183,3,3,3,1,2,9.34771095402539,-0.24244103115052,9.34772165492177,
8.382,0.193,3,3,3,1,2,9.2255537956953,-0.259969113394618,9.2280413210392,
8.392,0.202999999999999,3,3,3,1,2,9.10278839059174,-0.277520925737917,9.10279909148812,
8.402,0.213000000000001,3,3,3,1,2,8.97798067890108,-0.295087825506926,8.97799137979746,
8.412,0.223000000000001,3,3,3,1,2,8.8588594738394,-0.310687394812703,8.85887017473578,
8.422,0.233000000000001,3,3,3,1,2,8.73356862924993,-0.327883376739919,8.73357933014631,
8.432,0.243,3,3,3,1,2,8.6084143538028,-0.343762002885342,8.60842505469918,
8.447,0.258000000000001,3,3,3,1,2.25,8.42382014729083,-0.367199690081179,8.42383084818721,
8.457,0.268000000000001,3,3,3,1,2.25,8.30314633436501,-0.382100213319063,8.30315703526139,
8.467,0.278,3,3,3,1,2.25,8.17789262160659,-0.396933974698186,8.17790335044265,
8.477,0.288,3,3,3,1,2.25,8.05774924345315,-0.411364282481372,8.05775994434953,
8.487,0.298,3,3,3,1,2.25,7.93685073964298,-0.4252466885373,7.93686144053936,
8.497,0.308,3,3,3,1,2.25,7.81187511049211,-0.439807330258191,7.81188581138849,
8.507,0.318,3,3,3,1,2.25,7.6848108228296,-0.454585896804929,7.68740829080343,
8.517,0.327999999999999,3,3,3,1,2.25,7.55660310387611,-0.468666278757155,7.55661377683282,
8.527,0.338000000000001,3,3,3,1,2.25,7.4335731100291,-0.481883795000613,7.43358381092548,
8.537,0.348000000000001,3,3,3,1,2.25,7.30949498713016,-0.49521513748914,7.30950566008687,
8.547,0.358000000000001,3,3,3,1,2.25,7.18490470200777,-0.507775894366205,7.18491537496448,
8.557,0.368,3,3,3,1,2.25,7.0631816983223,-0.520005007274449,7.063192371279,
8.567,0.378,3,3,3,1,2.25,6.94424774497747,-0.531555274501443,6.94425841793418,
8.577,0.388,3,3,3,1,2.25,6.82497742585838,-0.543030784465373,6.82498812675476,
8.587,0.398,3,3,3,1,2.25,6.70474695973098,-0.555012947879732,6.70475766062737,
8.597,0.407999999999999,3,3,3,1,2.25,6.58130136318505,-0.566758522763848,6.58131206408143,
8.607,0.417999999999999,3,3,3,1,2.25,6.46448601968586,-0.577562744729221,6.46449672058225,
8.617,0.428000000000001,3,3,3,1,2.25,6.34215426631272,-0.588833983056247,6.34457241743803,
