"Total Time (s)","Cycle Elapsed Time (s)","Total Cycles","Elapsed Cycles","Step","Loop 1","Total Cycle Count(Linear Waveform)","Position(Linear:Position) (mm)","Force(Linear:Load) (kN)","Displacement(Linear:Digital Position) (mm)",
6.143,0,1,1,3,1,0,11.1301018763334,-0.0200654752552509,11.1301007866859,
6.144,0.00100000000000033,1,1,3,1,0,11.1301037203521,-0.0200480269268155,11.1301026307046,
6.156,0.0129999999999999,1,1,3,1,0,11.1300018243492,-0.0201442325487733,11.1300007067621,
6.166,0.0230000000000006,1,1,3,1,0,11.1288073752075,-0.0203324342146516,11.1288062855601,
6.176,0.0330000000000004,1,1,3,1,0,11.1194385867566,-0.0217151176184416,11.1194374971092,
6.186,0.0430000000000001,1,1,3,1,0,11.0951138287783,-0.0238065747544169,11.0951127111912,
6.196,0.0529999999999999,1,1,3,1,0,11.0515067819506,-0.0276170345023274,11.0515056923032,
6.206,0.0630000000000006,1,1,3,1,0,10.9886861499399,-0.0323030957952142,10.9886850602925,
6.216,0.0730000000000004,1,1,3,1,0,10.9112027753145,-0.0379440188407898,10.911201685667,
6.226,0.0830000000000002,1,1,3,1,0,10.827596867457,-0.0438461406156421,10.8275957778096,
6.236,0.093,1,1,3,1,0,10.7385739311576,-0.0505128782242537,10.7385728135705,
6.246,0.103000000000001,1,1,3,1,0,10.6396182999015,-0.0579191045835614,10.6396171823144,
6.256,0.113,1,1,3,1,0,10.5247953068465,-0.066428012214601,10.5247942171991,
6.266,0.123,1,1,3,1,0,10.3937360085547,-0.0755007099360228,10.3937348909676,
6.276,0.133,1,1,3,1,0,10.246683396399,-0.0864144507795572,10.2466822788119,
6.286,0.143000000000001,1,1,3,1,0,10.0844325777143,-0.097215143032372,10.0844314880669,
6.296,0.153,1,1,3,1,0,9.9161902628839,-0.109220277518034,9.91618914529681,
6.306,0.163,1,1,3,1,0,9.73962561227381,-0.121263386681676,9.7396245226264,
6.316,0.173,1,1,3,1,0,9.55069472081959,-0.133568719029427,9.55069357529282,
6.326,0.183000000000001,1,1,3,1,0,9.352016011253,-0.14656675979495,9.35201492160559,
6.336,0.193000000000001,1,1,3,1,0,9.14094152860343,-0.160672394558787,9.14094043895602,
6.343,0.2,1,1,3,1,0,8.98460291326046,-0.170202543959022,8.98460179567337,
6.353,0.21,1,1,3,1,0,8.75416894443333,-0.18293134868145,8.75416785478592,
6.363,0.220000000000001,1,1,3,1,0,8.55326145887375,-0.192162073217332,8.55326034128666,
6.373,0.23,1,1,3,1,0,8.41414463706315,-0.197906754910946,8.41414354741573,
6.383,0.24,1,1,3,1,0,8.31639748066664,-0.202692626044154,8.31639636307955,
6.393,0.25,1,1,3,1,0.25,8.2225644774735,-0.206472743302584,8.22256335988641,
6.403,0.260000000000001,1,1,3,1,0.25,8.11505673453212,-0.211286568082869,8.11505561694503,
6.413,0.27,1,1,3,1,0.25,7.99559268169105,-0.217225202359259,7.99559159204364,
6.423,0.28,1,1,3,1,0.25,7.87000746466219,-0.223625437356532,7.87000637501478,
6.433,0.29,1,1,3,1,0.25,7.74073675274849,-0.229546325281262,7.7407356351614,
6.443,0.300000000000001,1,1,3,1,0.25,7.61356866918504,-0.235580396838486,7.61356757953763,
6.453,0.310000000000001,1,1,3,1,0.25,7.49067644588649,-0.241161920130253,7.49067535623908,
6.463,0.32,1,1,3,1,0.25,7.3719987552613,-0.246909819543362,7.37199766561389,
6.473,0.33,1,1,3,1,0.25,7.25331578403711,-0.252174795605242,7.25331466645002,
6.483,0.340000000000001,1,1,3,1,0.25,7.13287990540266,-0.257771369069815,7.13287878781557,
6.493,0.350000000000001,1,1,3,1,0.25,7.00999670661986,-0.262736561708152,7.00999561697245,
6.503,0.36,1,1,3,1,0.25,6.88884691335261,-0.268349023535848,6.8888458237052,
6.513,0.37,1,1,3,1,0.25,6.76841558888554,-0.273715425282717,6.76841447129846,
6.523,0.380000000000001,1,1,3,1,0.25,6.64793045260012,-0.278662838973105,6.64792936295271,
6.533,0.390000000000001,1,1,3,1,0.25,6.5287852473557,-0.283742710016668,6.52878412976861,
6.543,0.4,1,1,3,1,0.25,6.40835696831345,-0.288797984831035,6.40835585072637,
6.553,0.41,1,1,3,1,0.25,6.28972752951086,-0.293761878274381,6.28972643986344,
6.563,0.42,1,1,3,1,0.25,6.16950717754662,-0.298484233208001,6.16950608789921,
6.573,0.430000000000001,1,1,3,1,0.25,6.0508946981281,-0.303172925487161,6.05089360848069,
6.583,0.44,1,1,3,1,0.25,5.93234125524759,-0.30787440482527,5.9323401376605,
6.593,0.45,1,1,3,1,0.25,5.81542977131903,-0.312872347421944,5.81542868167162,
6.603,0.46,1,1,3,1,0.25,5.69442171603441,-0.317558762617409,5.69442059844732,
6.613,0.470000000000001,1,1,3,1,0.25,5.57404638268053,-0.32227364834398,5.57404529303312,
6.623,0.48,1,1,3,1,0.25,5.45159144327044,-0.327050709165633,5.45159032568336,
6.633,0.49,1,1,3,1,0.25,5.32942791469395,-0.331208650022745,5.32942682504654,
6.643,0.5,1,1,3,1,0.5,5.21042358130217,-0.336426622234285,5.21042246371508,
6.646,0.503,1,1,3,1,0.5,5.17346139997244,-0.337269580923021,5.17346028238535,
6.656,0.513000000000001,1,1,3,1,0.5,5.07348421029746,-0.334872617386281,5.07348312065005,
6.661,0.518000000000001,1,1,3,1,0.5,5.0613122060895,-0.334166516549885,5.06131108850241,
6.671,0.528,1,1,3,1,0.5,5.10781045071781,-0.324904383160174,5.10780936107039,
6.681,0.538,1,1,3,1,0.5,5.25344526395202,-0.313732633367181,5.25344414636493,
6.691,0.548,1,1,3,1,0.5,5.44255396351218,-0.300534213893116,5.44255284592509,
6.701,0.558000000000001,1,1,3,1,0.5,5.62147074379027,-0.288961362093687,5.62146965414286,
6.711,0.568000000000001,1,1,3,1,0.5,5.76716816984117,-0.279000508598983,5.76716708019376,
6.721,0.578,1,1,3,1,0.5,5.89273662306368,-0.270963357761502,5.89273553341627,
6.731,0.588,1,1,3,1,0.5,6.01095473393798,-0.263172360137105,6.01095361635089,
6.741,0.598000000000001,1,1,3,1,0.5,6.13195016048849,-0.255594188347459,6.13194907084107,
6.751,0.608000000000001,1,1,3,1,0.5,6.25808643177152,-0.247745243832469,6.25808531418443,
6.761,0.618,1,1,3,1,0.5,6.38702860102057,-0.23961529135704,6.38702748343349,
6.771,0.628,1,1,3,1,0.5,6.5179409366101,-0.231632525101304,6.51793979108334,
6.781,0.638000000000001,1,1,3,1,0.5,6.64760132320225,-0.224483087658882,6.64760023355484,
6.791,0.648000000000001,1,1,3,1,0.5,6.77171864546835,-0.216740793548524,6.77171755582094,
6.801,0.658,1,1,3,1,0.5,6.89735753461719,-0.209736912511289,6.8973564170301,
6.811,0.668,1,1,3,1,0.5,7.02437776140869,-0.202219416387379,7.02437667176127,
6.821,0.678,1,1,3,1,0.5,7.14936565607786,-0.19496341701597,7.14936453849077,
6.831,0.688000000000001,1,1,3,1,0.5,7.27460749447346,-0.187696400098503,7.27460637688637,
6.841,0.698,1,1,3,1,0.5,7.39939047954976,-0.180975389666855,7.39938938990235,
6.851,0.708,1,1,3,1,0.5,7.52375084906816,-0.173873086459935,7.52374973148108,
6.861,0.718,1,1,3,1,0.5,7.64345618896186,-0.166627122089267,7.64345509931445,
6.871,0.728000000000001,1,1,3,1,0.5,7.7630352973938,-0.160261392593384,7.76303417980671,
6.881,0.738,1,1,3,1,0.5,7.88458602502942,-0.153462132439017,7.88458490744233,
6.891,0.748,1,1,3,1,0.5,8.007971663028,-0.146607556380332,8.00797054544091,
6.903,0.760000000000001,1,1,3,1,0.75,8.15276781097054,-0.138809718191624,8.15276669338346,
6.913,0.77,1,1,3,1,0.75,8.27036971226335,-0.131903728470206,8.27036859467626,
6.923,0.78,1,1,3,1,0.75,8.38819496333599,-0.125609203241765,8.3881938457489,
6.933,0.79,1,1,3,1,0.75,8.50903848186135,-0.119238467887044,8.50903736427426,
6.943,0.800000000000001,1,1,3,1,0.75,8.62780882045627,-0.113111226819456,8.62780770286918,
6.953,0.810000000000001,1,1,3,1,0.75,8.74498070217669,-0.106761245988309,8.74497961252928,
6.963,0.82,1,1,3,1,0.75,8.86292846873403,-0.100246327929199,8.86292735114694,
6.973,0.83,1,1,3,1,0.75,8.98423209786415,-0.0936181657016277,8.98423098027706,
6.983,0.840000000000001,1,1,3,1,0.75,9.10580548457801,-0.0873965444043279,9.1058043949306,
6.993,0.850000000000001,1,1,3,1,0.75,9.22523930668831,-0.0809893105179071,9.22523818910122,
7.003,0.86,1,1,3,1,0.75,9.34462322853506,-0.0745156826451421,9.34462213888764,
7.013,0.87,1,1,3,1,0.75,9.46635391563177,-0.0683460617437959,9.46635279804468,
7.023,0.880000000000001,1,1,3,1,0.75,9.58749591372907,-0.0626882258802652,9.58749482408166,
7.033,0.890000000000001,1,1,3,1,0.75,9.7059303894639,-0.0564319035038352,9.70592927187681,
7.043,0.9,1,1,3,1,0.75,9.82548477128148,-0.0502512371167541,9.82548365369439,
7.053,0.91,1,1,3,1,0.75,9.94875261560082,-0.0442951126024127,9.94875149801373,
7.063,0.92,1,1,3,1,0.75,10.0724567938596,-0.0383604876697063,10.0724557042122,
7.073,0.930000000000001,1,1,3,1,0.75,10.195614779368,-0.0323944911360741,10.1956136897206,
7.083,0.94,1,1,3,1,0.75,10.3179330378771,-0.0264351954683661,10.31793192029,
7.093,0.95,1,1,3,1,0.75,10.4432002175599,-0.0208603171631694,10.4431991279125,
7.103,0.96,1,1,3,1,0.75,10.5672956630588,-0.0152963353320956,10.5672945454717,
7.113,0.970000000000001,1,1,3,1,0.75,10.6882016547024,-0.0105674844235182,10.6882005371153,
7.123,0.98,1,1,3,1,0.75,10.8063155785203,-0.00634254422038794,10.8063144609332,
7.133,0.99,1,1,3,1,0.75,10.9248040616512,-0.00316396821290255,10.9248029440641,
7.142,0.999000000000001,1,1,3,1,0.75,11.0337898414582,-0.00098666176199913,11.0337887518108,
7.143,1,1,1,3,1,1,11.0465059988201,-0.00100824516266584,11.046504881233,
7.153,0.0100000000000007,2,2,3,1,1,11.1728087905794,-0.00448198523372412,11.172807700932,
7.161,0.0180000000000007,2,2,3,1,1,11.2196743860841,-0.00658059492707253,11.219673268497,
7.171,0.0280000000000005,2,2,3,1,1,11.1670372076333,-0.00691654626280069,11.1670360900462,
7.181,0.0380000000000003,2,2,3,1,1,10.9909915924072,-0.0107814557850361,10.9909904748201,
7.191,0.048,2,2,3,1,1,10.7703472394496,-0.02279635053128,10.7703461498022,
7.201,0.0580000000000007,2,2,3,1,1,10.5888304207474,-0.0356416404247284,10.5888293311,
7.211,0.0680000000000005,2,2,3,1,1,10.4580769781023,-0.0452307658270001,10.4580758884549,
7.221,0.0780000000000003,2,2,3,1,1,10.3514571301639,-0.0537314126268029,10.3514560125768,
7.231,0.0880000000000001,2,2,3,1,1,10.2414904721081,-0.0619946839287877,10.241489354521,
7.241,0.0980000000000008,2,2,3,1,1,10.1173444557935,-0.0706969294697046,10.1173433661461,
7.251,0.108000000000001,2,2,3,1,1,9.98446114361286,-0.0797169376164675,9.98446002602577,
7.261,0.118,2,2,3,1,1,9.85085480846465,-0.08871681522578,9.85085371881723,
7.271,0.128,2,2,3,1,1,9.72184373997152,-0.0969771714881063,9.72184265032411,
7.281,0.138000000000001,2,2,3,1,1,9.59786988794804,-0.104982978664339,9.59786877036095,
7.291,0.148000000000001,2,2,3,1,1,9.47917154990137,-0.112299146130681,9.47917046025395,
7.301,0.158,2,2,3,1,1,9.36155400238931,-0.119884326122701,9.3615529127419,
7.311,0.168,2,2,3,1,1,9.24266687594354,-0.127443335950375,9.24266578629613,
7.321,0.178,2,2,3,1,1,9.11996738053858,-0.134651502594352,9.11996629089117,
7.331,0.188000000000001,2,2,3,1,1,8.99849239736795,-0.142151028849185,8.99849127978086,
7.341,0.198,2,2,3,1,1,8.87638838030398,-0.149421645328403,8.87638729065657,
7.351,0.208,2,2,3,1,1,8.75535258091986,-0.156340785324574,8.75535149127245,
7.361,0.218,2,2,3,1,1,8.63431680947542,-0.163453491404653,8.63431569188833,
7.371,0.228000000000001,2,2,3,1,1,8.51356130093336,-0.170126855373383,8.51356018334627,
7.381,0.238,2,2,3,1,1,8.39487978257239,-0.176939768716693,8.39487869292498,
7.391,0.248,2,2,3,1,1,8.27232032082975,-0.183657063171268,8.27231923118234,
7.403,0.260000000000001,2,2,3,1,1.25,8.12225005589426,-0.191856315359473,8.12224896624684,
7.413,0.27,2,2,3,1,1.25,7.99980263225734,-0.198143203742802,7.99980154260993,
7.423,0.28,2,2,3,1,1.25,7.87906106561422,-0.204886812716722,7.87905994802713,
7.433,0.29,2,2,3,1,1.25,7.75713614188135,-0.211583925411105,7.75713505223393,
7.443,0.300000000000001,2,2,3,1,1.25,7.6312215719372,-0.218047369271517,7.63122048228979,
7.453,0.310000000000001,2,2,3,1,1.25,7.50774174928665,-0.224349955096841,7.50774063169956,
7.463,0.32,2,2,3,1,1.25,7.38587653264403,-0.23074415512383,7.38587541505694,
7.473,0.33,2,2,3,1,1.25,7.26365975104272,-0.236403327435255,7.26365866139531,
7.483,0.340000000000001,2,2,3,1,1.25,7.14236481115222,-0.24274738971144,7.14236369356513,
7.493,0.350000000000001,2,2,3,1,1.25,7.02091787941754,-0.248108827508986,7.02091678977013,
7.503,0.36,2,2,3,1,1.25,6.90057987347245,-0.253999386914074,6.90057875588536,
7.513,0.37,2,2,3,1,1.25,6.78014094941318,-0.259370608255267,6.78013985976577,
7.523,0.380000000000001,2,2,3,1,1.25,6.66020630858838,-0.265255197882652,6.66020521894097,
7.533,0.390000000000001,2,2,3,1,1.25,6.5430913399905,-0.270625171251595,6.54309025034308,
7.543,0.4,2,2,3,1,1.25,6.42426380887628,-0.275568473152816,6.42426269128919,
7.553,0.41,2,2,3,1,1.25,6.30448808893561,-0.281428997404873,6.30448697134852,
7.563,0.42,2,2,3,1,1.25,6.180469840765,-0.287060798145831,6.18046872317791,
7.573,0.430000000000001,2,2,3,1,1.25,6.06070409528911,-0.292119709774852,6.0607030056417,
7.583,0.44,2,2,3,1,1.25,5.94289133325219,-0.297241001389921,5.9428902156651,
7.593,0.45,2,2,3,1,1.25,5.82551297731698,-0.302322846837342,5.82551188766956,
7.603,0.46,2,2,3,1,1.25,5.70418322458863,-0.307245068252087,5.70418210700154,
7.613,0.470000000000001,2,2,3,1,1.25,5.58117460459471,-0.312241963110864,5.58117348700762,
7.623,0.48,2,2,3,1,1.25,5.46009697951376,-0.317567847669125,5.46009588986635,
7.633,0.49,2,2,3,1,1.25,5.34002283588052,-0.32198668923229,5.34002171829343,
7.643,0.5,2,2,3,1,1.5,5.21923715248704,-0.327383223921061,5.21923603489995,
7.648,0.505000000000001,2,2,3,1,1.5,5.15715627931058,-0.328925997018814,5.15715518966317,
7.658,0.515000000000001,2,2,3,1,1.5,5.07029897533357,-0.325341005809605,5.07029788568616,
7.661,0.518000000000001,2,2,3,1,1.5,5.06669358350337,-0.325917243026197,5.06669249385595,
7.671,0.528,2,2,3,1,1.5,5.11691004037857,-0.317040728405118,5.11690892279148,
7.681,0.538,2,2,3,1,1.5,5.2636794000864,-0.305247278884053,5.26367828249931,
7.691,0.548,2,2,3,1,1.5,5.45117338187993,-0.292184823192656,5.45117229223251,
7.701,0.558000000000001,2,2,3,1,1.5,5.62741004861891,-0.28101877309382,5.6274089589715,
7.711,0.568000000000001,2,2,3,1,1.5,5.77077836729586,-0.271283751353621,5.77077727764845,
7.721,0.578,2,2,3,1,1.5,5.89546294882894,-0.263567129150033,5.89546183124185,
7.731,0.588,2,2,3,1,1.5,6.01236384361982,-0.255181570537388,6.01236272603273,
7.741,0.598000000000001,2,2,3,1,1.5,6.13429156132042,-0.247838399372995,6.13429047167301,
7.751,0.608000000000001,2,2,3,1,1.5,6.26020814292133,-0.239854399114847,6.26020705327392,
7.761,0.618,2,2,3,1,1.5,6.38775821775198,-0.232113264501095,6.38775710016489,
7.771,0.628,2,2,3,1,1.5,6.51959138922393,-0.224223555997014,6.51959029957652,
7.781,0.638000000000001,2,2,3,1,1.5,6.6489224229008,-0.21704813465476,6.64892133325338,
7.791,0.648000000000001,2,2,3,1,1.5,6.77352891303599,-0.209790170192719,6.77352782338858,
7.801,0.658,2,2,3,1,1.5,6.89938615076244,-0.202416176907718,6.89938506111503,
7.811,0.668,2,2,3,1,1.5,7.02521058730781,-0.194748169742525,7.0252094976604,
7.821,0.678,2,2,3,1,1.5,7.15099291875958,-0.187759594991803,7.15099180117249,
7.831,0.688000000000001,2,2,3,1,1.5,7.27613802999258,-0.180468959733844,7.27613691240549,
7.841,0.698,2,2,3,1,1.5,7.40147475153208,-0.173994330689311,7.40147363394499,
7.851,0.708,2,2,3,1,1.5,7.52481719478965,-0.166852362453938,7.52481607720256,
7.861,0.718,2,2,3,1,1.5,7.64345861971378,-0.160355884581804,7.64345750212669,
7.871,0.728000000000001,2,2,3,1,1.5,7.76169707067311,-0.15361001715064,7.7616959810257,
7.881,0.738,2,2,3,1,1.5,7.88240734487772,-0.146898753009737,7.88240622729063,
7.891,0.748,2,2,3,1,1.5,8.00564878620207,-0.139699885621667,8.00564769655466,
7.903,0.760000000000001,2,2,3,1,1.75,8.15229856409132,-0.131547427736223,8.15229747444391,
7.913,0.77,2,2,3,1,1.75,8.27098463661969,-0.125144361518323,8.27098354697227,
7.923,0.78,2,2,3,1,1.75,8.38957423344254,-0.118664791807532,8.38957311585546,
7.933,0.79,2,2,3,1,1.75,8.51038592867553,-0.112766870297492,8.51038483902812,
7.943,0.800000000000001,2,2,3,1,1.75,8.62898167222738,-0.106349689885974,8.62898055464029,
7.953,0.810000000000001,2,2,3,1,1.75,8.74514322727919,-0.0998843275010586,8.7451421096921,
7.963,0.82,2,2,3,1,1.75,8.86348268017173,-0.0938993273302913,8.86348156258464,
7.973,0.83,2,2,3,1,1.75,8.98437285795808,-0.0875078747048974,8.98437174037099,
7.983,0.840000000000001,2,2,3,1,1.75,9.10454836674035,-0.0809737760573626,9.10454727709293,
7.993,0.850000000000001,2,2,3,1,1.75,9.22547089867294,-0.0749635836109519,9.22546980902553,
8.003,0.86,2,2,3,1,1.75,9.34544177725911,-0.0686530163511634,9.34544065967202,
8.013,0.87,2,2,3,1,1.75,9.46667837910354,-0.0626268610358238,9.46667728945613,
8.023,0.88,2,2,3,1,1.75,9.5869917422533,-0.0566112855449319,9.58699062466621,
8.033,0.89,2,2,3,1,1.75,9.70600498840213,-0.0504517741501331,9.70600387081504,
8.043,0.900000000000001,2,2,3,1,1.75,9.82685037888587,-0.0446130661293864,9.82684928923845,
8.053,0.910000000000001,2,2,3,1,1.75,9.95043341070414,-0.0386214163154364,9.95043229311705,
8.063,0.920000000000001,2,2,3,1,1.75,10.0740061886609,-0.0326325744390488,10.0740050710738,
8.073,0.930000000000001,2,2,3,1,1.75,10.1973527111113,-0.0267656240612268,10.1973515935242,
8.083,0.94,2,2,3,1,1.75,10.3189814463258,-0.0212775869295001,10.3189803287387,
8.093,0.95,2,2,3,1,1.75,10.4434886947274,-0.0157626112923026,10.4434875771403,
8.103,0.96,2,2,3,1,1.75,10.5672101117671,-0.0109119480475783,10.56720899418,
8.113,0.97,2,2,3,1,1.75,10.6886220350862,-0.00655198935419321,10.6886209174991,
8.123,0.98,2,2,3,1,1.75,10.8093226142228,-0.00317136291414499,10.8093214966357,
8.133,0.990000000000001,2,2,3,1,1.75,10.9319280087948,-0.00118025112897158,10.9319268912077,
8.143,1,2,2,3,1,2,11.0579363722354,-0.000717705115675926,11.057935282588,
8.144,0.000999999999999446,3,3,3,1,2,11.0710540227592,-0.000655627809464931,11.0710529051721,
8.154,0.0109999999999992,3,3,3,1,2,11.1937040369958,-0.00514214392751455,11.1937029473484,
8.161,0.0179999999999989,3,3,3,1,2,11.2244269810617,-0.00614190008491278,11.2244258634746,
8.171,0.0279999999999987,3,3,3,1,2,11.1634282395244,-0.0069199874997139,11.1634271219373,
8.181,0.0380000000000003,3,3,3,1,2,10.9769986197352,-0.00711517408490181,10.9769975021482,
8.191,0.048,3,3,3,1,2,10.7486128527671,-0.0184522289782763,10.7486117631197,
8.201,0.0579999999999998,3,3,3,1,2,10.5661294050515,-0.03074218519032,10.5661282874644,
8.211,0.0679999999999996,3,3,3,1,2,10.4396937321872,-0.0406385865062475,10.4396926425397,
8.221,0.0779999999999994,3,3,3,1,2,10.3386144619435,-0.0484330672770739,10.3386133722961,
8.231,0.0879999999999992,3,3,3,1,2,10.2338045462966,-0.0563225755468011,10.2338034287095,
8.241,0.097999999999999,3,3,3,1,2,10.1111448928714,-0.0653262855485082,10.1111437752843,
8.251,0.107999999999999,3,3,3,1,2,9.97771091759205,-0.0743055157363415,9.97770980000496,
8.261,0.118,3,3,3,1,2,9.84482598491013,-0.0830038171261549,9.84482489526272,
8.271,0.128,3,3,3,1,2,9.71649899147451,-0.0913578737527132,9.7164979018271,
8.281,0.138,3,3,3,1,2,9.59268649108708,-0.0996975880116224,9.59268540143967,
8.291,0.148,3,3,3,1,2,9.47357685305178,-0.10704395826906,9.47357576340437,
8.301,0.157999999999999,3,3,3,1,2,9.35673222877085,-0.114403194747865,9.35673113912344,
8.311,0.167999999999999,3,3,3,1,2,9.23725157976151,-0.12212420348078,9.23725046217442,
8.321,0.177999999999999,3,3,3,1,2,9.1153372451663,-0.129231782630086,9.11533612757921,
8.331,0.187999999999999,3,3,3,1,2,8.99428267031908,-0.136539898812771,8.99428155273199,
8.341,0.197999999999999,3,3,3,1,2,8.87413023971021,-0.14380241278559,8.8741291500628,
8.351,0.208,3,3,3,1,2,8.75309555791318,-0.151113984175026,8.75309446826577,
8.361,0.218,3,3,3,1,2,8.63140630535781,-0.158033412881196,8.6314052157104,
8.371,0.228,3,3,3,1,2,8.5108039341867,-0.165277346968651,8.51080281659961,
8.381,0.238,3,3,3,1,2,8.39229094795883,-0.17173090018332,8.39228985831141,
8.391,0.247999999999999,3,3,3,1,2,8.27017927542329,-0.178657714277506,8.2701781578362,
8.403,0.26,3,3,3,1,2.25,8.12138138338923,-0.186871341429651,8.12138026580215,
8.413,0.27,3,3,3,1,2.25,7.99886385910213,-0.193296279758215,7.99886276945472,
8.423,0.279999999999999,3,3,3,1,2.25,7.878771526739,-0.199983175843954,7.87877043709159,
8.433,0.289999999999999,3,3,3,1,2.25,7.7576258406043,-0.206591906026006,7.75762472301722,
8.443,0.299999999999999,3,3,3,1,2.25,7.63267359696329,-0.212972029112279,7.63267250731587,
8.453,0.309999999999999,3,3,3,1,2.25,7.50766756944358,-0.219179014675319,7.50766647979617,
8.463,0.32,3,3,3,1,2.25,7.38673953339458,-0.225542834959924,7.38673841580748,
