"Total Time (s)","Cycle Elapsed Time (s)","Total Cycles","Elapsed Cycles","Step","Loop 1","Total Cycle Count(Linear Waveform)","Position(Linear:Position) (mm)","Force(Linear:Load) (kN)","Displacement(Linear:Digital Position) (mm)",
998.126,0,993,993,3,1,992,11.2953735608608,-0.002398113720119,11.2953764945269,
998.136,0.00999999999999091,993,993,3,1,992,11.4159229584038,-0.00542193651199341,11.4159259200096,
998.144,0.0180000000000291,993,993,3,1,992,11.4566071517766,-0.00665702857077122,11.4566101133823,
998.154,0.02800000000002,993,993,3,1,992,11.4142879005522,-0.00696803908795118,11.4142908342183,
998.164,0.0380000000000109,993,993,3,1,992,11.2606742978096,-0.00494475942105055,11.2606772594154,
998.174,0.0480000000000018,993,993,3,1,992,11.0309703368694,-0.00324237626045942,11.0309732705355,
998.184,0.0579999999999927,993,993,3,1,992,10.7851978205144,-0.00724648591130972,10.7852007821202,
998.194,0.0680000000000973,993,993,3,1,992,10.5799817573279,-0.0209386879578233,10.579984690994,
998.204,0.0780000000000882,993,993,3,1,992,10.448592575267,-0.0391239626333117,10.4485955089331,
998.214,0.0880000000000791,993,993,3,1,992,10.3704689629376,-0.0518041709437966,10.3704719245434,
998.224,0.09800000000007,993,993,3,1,992,10.3013879992068,-0.0627565616741776,10.3013909608126,
998.234,0.108000000000061,993,993,3,1,992,10.2177594043314,-0.0757526373490691,10.2177623659372,
998.244,0.118000000000052,993,993,3,1,992,10.1165411341935,-0.091602448374033,10.1165440678596,
998.254,0.128000000000043,993,993,3,1,992,10.0029969681054,-0.108856982551515,10.0029999017715,
998.264,0.138000000000034,993,993,3,1,992,9.88689123652875,-0.1263825641945,9.88689417019486,
998.274,0.148000000000025,993,993,3,1,992,9.77367625571787,-0.143666574731469,9.77367918938398,
998.284,0.158000000000015,993,993,3,1,992,9.66067504137754,-0.160791231319308,9.66067800298333,
998.294,0.168000000000006,993,993,3,1,992,9.54716040752828,-0.178097900934517,9.54716334119439,
998.304,0.177999999999997,993,993,3,1,992,9.43298731930554,-0.194741012528539,9.43299025297165,
998.314,0.187999999999988,993,993,3,1,992,9.31986269541085,-0.212198528461158,9.31986562907696,
998.324,0.198000000000093,993,993,3,1,992,9.20350248925388,-0.228888699784875,9.20350542291999,
998.334,0.208000000000084,993,993,3,1,992,9.08431590534747,-0.246694753877819,9.08431883901358,
998.344,0.218000000000075,993,993,3,1,992,8.96609164774418,-0.263662566430867,8.96609460934997,
998.354,0.228000000000065,993,993,3,1,992,8.84942111559212,-0.280875130556524,8.84942404925823,
998.364,0.238000000000056,993,993,3,1,992,8.73141255229712,-0.297989472746849,8.7314155139029,
998.374,0.248000000000047,993,993,3,1,992,8.61195160076022,-0.315141957253218,8.61195456236601,
998.386,0.259999999999991,993,993,3,1,992.25,8.46836940385401,-0.335780074819922,8.46837233752012,
998.396,0.270000000000096,993,993,3,1,992.25,8.34992886520922,-0.352630424313247,8.34993179887533,
998.406,0.280000000000086,993,993,3,1,992.25,8.2318028435111,-0.369175453670323,8.23180580511689,
998.416,0.290000000000077,993,993,3,1,992.25,8.11365530826151,-0.386188644915819,8.11365824192762,
998.426,0.300000000000068,993,993,3,1,992.25,7.99478508532047,-0.402980833314359,7.99478804692626,
998.436,0.310000000000059,993,993,3,1,992.25,7.87736557424068,-0.419412269257009,7.87736853584647,
998.446,0.32000000000005,993,993,3,1,992.25,7.75695450603962,-0.436020847409964,7.75695746764541,
998.456,0.330000000000041,993,993,3,1,992.25,7.63442231342196,-0.453132539987564,7.63442527502775,
998.466,0.340000000000032,993,993,3,1,992.25,7.51263686455786,-0.470174211077392,7.51263979822397,
998.476,0.350000000000023,993,993,3,1,992.25,7.3932777531445,-0.485850623808801,7.39328071475029,
998.486,0.360000000000014,993,993,3,1,992.25,7.27573717944324,-0.502544683404267,7.27574011310935,
998.496,0.370000000000005,993,993,3,1,992.25,7.15667305514216,-0.518599259667099,7.15667601674795,
998.506,0.379999999999995,993,993,3,1,992.25,7.03801148571074,-0.534587926231325,7.03801441937685,
998.516,0.3900000000001,993,993,3,1,992.25,6.92044638097286,-0.550390570424497,6.92044934257865,
998.526,0.400000000000091,993,993,3,1,992.25,6.80420178920031,-0.566030913032591,6.80420475080609,
998.536,0.410000000000082,993,993,3,1,992.25,6.68898554518819,-0.581750329583883,6.68898850679398,
998.546,0.420000000000073,993,993,3,1,992.25,6.57131745480001,-0.597520717419684,6.57132038846612,
998.556,0.430000000000064,993,993,3,1,992.25,6.4522710442543,-0.613350165076554,6.45227400586009,
998.566,0.440000000000055,993,993,3,1,992.25,6.33344479836523,-0.62910798471421,6.33344773203135,
998.576,0.450000000000045,993,993,3,1,992.25,6.21514155529439,-0.644614887423813,6.2151444889605,
998.586,0.460000000000036,993,993,3,1,992.25,6.09715632162988,-0.660471743904054,6.09715925529599,
998.596,0.470000000000027,993,993,3,1,992.25,5.97839517518878,-0.675906967371702,5.97839813679457,
998.606,0.480000000000018,993,993,3,1,992.25,5.85991275496781,-0.691120303235948,5.85991568863392,
998.616,0.490000000000009,993,993,3,1,992.25,5.7421013340354,-0.706414976157248,5.74210429564118,
998.626,0.5,993,993,3,1,992.5,5.6228761933744,-0.722309774719179,5.62287915498018,
998.636,0.509999999999991,993,993,3,1,992.5,5.50704309716821,-0.734070162288845,5.50704605877399,
998.643,0.517000000000053,993,993,3,1,992.5,5.4615521337837,-0.736736510880291,5.46155506744981,
998.646,0.520000000000096,993,993,3,1,992.5,5.45635052025318,-0.735568413510919,5.45635348185897,
998.656,0.530000000000086,993,993,3,1,992.5,5.48101807013154,-0.726811024360359,5.48102103173733,
998.666,0.540000000000077,993,993,3,1,992.5,5.57027790695429,-0.708908471278846,5.57028086856008,
998.676,0.550000000000068,993,993,3,1,992.5,5.69650009274483,-0.686143590137362,5.69650305435061,
998.686,0.560000000000059,993,993,3,1,992.5,5.8337658829987,-0.662957690656185,5.83376884460449,
998.696,0.57000000000005,993,993,3,1,992.5,5.97016995772719,-0.640664282254875,5.97017291933298,
998.706,0.580000000000041,993,993,3,1,992.5,6.09978192485869,-0.619278573431075,6.0997848585248,
998.716,0.590000000000032,993,993,3,1,992.5,6.22539963573217,-0.599584802985191,6.22540254145861,
998.726,0.600000000000023,993,993,3,1,992.5,6.35144105181098,-0.580484713427722,6.35144401341677,
998.736,0.610000000000014,993,993,3,1,992.5,6.47764426656067,-0.560623672790825,6.47764720022678,
998.746,0.620000000000005,993,993,3,1,992.5,6.60225581377745,-0.542222973890603,6.60225877538323,
998.756,0.629999999999995,993,993,3,1,992.5,6.72682939097285,-0.52405814640224,6.72683235257864,
998.766,0.6400000000001,993,993,3,1,992.5,6.85144524089992,-0.505286422558129,6.85144817456603,
998.776,0.650000000000091,993,993,3,1,992.5,6.97434042580426,-0.486865332350135,6.97434335947037,
998.786,0.660000000000082,993,993,3,1,992.5,7.09603495895863,-0.469877417199314,7.09603792056441,
998.796,0.670000000000073,993,993,3,1,992.5,7.21639011986554,-0.45203139539808,7.21639305353165,
998.806,0.680000000000064,993,993,3,1,992.5,7.33700587414205,-0.435190717689693,7.33700880780816,
998.816,0.690000000000055,993,993,3,1,992.5,7.45899757370353,-0.417486475780606,7.45900053530931,
998.826,0.700000000000045,993,993,3,1,992.5,7.58047104813159,-0.400217808783054,7.5804739817977,
998.836,0.710000000000036,993,993,3,1,992.5,7.69890650175512,-0.383618087507784,7.69890943542123,
998.846,0.720000000000027,993,993,3,1,992.5,7.81899961642921,-0.366337364539504,7.81900255009532,
998.856,0.730000000000018,993,993,3,1,992.5,7.93897429481149,-0.349264731630683,7.93897725641727,
998.866,0.740000000000009,993,993,3,1,992.5,8.05775905027986,-0.333194374106824,8.05776201188564,
998.876,0.75,993,993,3,1,992.75,8.17293785512447,-0.317099425010383,8.17294081673026,
998.886,0.759999999999991,993,993,3,1,992.75,8.28892816789448,-0.301044615916908,8.28893110156059,
998.896,0.770000000000096,993,993,3,1,992.75,8.40439271181822,-0.284453509375453,8.40439567342401,
998.906,0.780000000000086,993,993,3,1,992.75,8.51926932111382,-0.268813092261553,8.51927228271961,
998.916,0.790000000000077,993,993,3,1,992.75,8.63515480421484,-0.252874628640711,8.63515773788095,
998.926,0.800000000000068,993,993,3,1,992.75,8.75147977843881,-0.236475979909301,8.75148274004459,
998.936,0.810000000000059,993,993,3,1,992.75,8.87028314173222,-0.220033992081881,8.870286103338,
998.946,0.82000000000005,993,993,3,1,992.75,8.98982003331184,-0.20360620226711,8.98982299491763,
998.956,0.830000000000041,993,993,3,1,992.75,9.11004287190735,-0.186965372413397,9.11004580557346,
998.966,0.840000000000032,993,993,3,1,992.75,9.23099306412041,-0.170572716742754,9.23099599778652,
998.976,0.850000000000023,993,993,3,1,992.75,9.35165399685502,-0.154039682820439,9.35165695846081,
998.986,0.860000000000014,993,993,3,1,992.75,9.46980907581747,-0.137984226457775,9.46981200948357,
998.996,0.870000000000005,993,993,3,1,992.75,9.58460113964975,-0.122656477615237,9.58460407331586,
999.006,0.879999999999995,993,993,3,1,992.75,9.70065177418292,-0.106769101694226,9.70065470784903,
999.016,0.8900000000001,993,993,3,1,992.75,9.82055685482919,-0.0906637543812394,9.8205597884953,
999.026,0.900000000000091,993,993,3,1,992.75,9.94292979128659,-0.0748258596286178,9.9429327249527,
999.036,0.910000000000082,993,993,3,1,992.75,10.0636604893953,-0.0590152153745294,10.0636634230614,
999.046,0.920000000000073,993,993,3,1,992.75,10.1848192512989,-0.0437708711251616,10.1848222129047,
999.056,0.930000000000064,993,993,3,1,992.75,10.3086683247238,-0.0290272850543261,10.3086712583899,
999.066,0.940000000000055,993,993,3,1,992.75,10.4351491760463,-0.0164433009922504,10.4351521097124,
999.076,0.950000000000045,993,993,3,1,992.75,10.5651403125376,-0.00829520169645548,10.5651432462037,
999.086,0.960000000000036,993,993,3,1,992.75,10.7049989886582,-0.00424784142524004,10.705001950264,
999.096,0.970000000000027,993,993,3,1,992.75,10.8539364673197,-0.00215235166251659,10.8539394289255,
999.102,0.975999999999999,993,993,3,1,992.75,10.9454751759768,-0.00190477818250656,10.9454781375825,
999.112,0.98599999999999,993,993,3,1,992.75,11.097881058231,-0.00236846972256899,11.0978839918971,
999.122,0.996000000000095,993,993,3,1,992.75,11.2420538440347,-0.00271034892648458,11.2420568056405,
999.126,1,993,993,3,1,993,11.2956213578582,-0.002393270842731,11.295624319464,
999.138,0.0120000000000573,994,994,3,1,993,11.4324395544827,-0.00612551346421242,11.4324424602091,
999.144,0.0180000000000291,994,994,3,1,993,11.4557146746665,-0.00651029404252768,11.4557176083326,
999.154,0.02800000000002,994,994,3,1,993,11.413148464635,-0.00661913771182299,11.4131513983011,
999.164,0.0380000000000109,994,994,3,1,993,11.2609237153083,-0.00500559341162443,11.2609266489744,
999.174,0.0480000000000018,994,994,3,1,993,11.031374623999,-0.00333806499838829,11.0313775576651,
999.184,0.0579999999999927,994,994,3,1,993,10.7858622819185,-0.00712664797902107,10.7858652435243,
999.194,0.0680000000000973,994,994,3,1,993,10.5801760498434,-0.0211131386458874,10.5801789835095,
999.204,0.0780000000000882,994,994,3,1,993,10.4480928182602,-0.0392057932913303,10.448095779866,
999.214,0.0880000000000791,994,994,3,1,993,10.3700593113899,-0.051861209794879,10.3700622729957,
999.224,0.09800000000007,994,994,3,1,993,10.3013790864497,-0.0625685043632984,10.3013820201159,
999.234,0.108000000000061,994,994,3,1,993,10.2183948643506,-0.0755493296310306,10.2183978259563,
999.244,0.118000000000052,994,994,3,1,993,10.1175760198385,-0.0913963746279478,10.1175789535046,
999.254,0.128000000000043,994,994,3,1,993,10.0035553704947,-0.108830160461366,10.0035583041608,
999.264,0.138000000000034,994,994,3,1,993,9.88608411513269,-0.12636267580092,9.8860870487988,
999.274,0.148000000000025,994,994,3,1,993,9.77338369935751,-0.143889896571636,9.7733866609633,
999.284,0.158000000000015,994,994,3,1,993,9.66084592044353,-0.160943544469774,9.66084888204932,
999.294,0.168000000000006,994,994,3,1,993,9.54721732065082,-0.177909936755896,9.5472202822566,
999.304,0.177999999999997,994,994,3,1,993,9.43298779428005,-0.194397340528667,9.43299075588584,
999.314,0.187999999999988,994,994,3,1,993,9.32037089020014,-0.211867839097977,9.32037385180592,
999.324,0.198000000000093,994,994,3,1,993,9.2037726379931,-0.228753909468651,9.20377559959888,
999.334,0.208000000000084,994,994,3,1,993,9.08388552255929,-0.246699000708759,9.08388845622539,
999.344,0.218000000000075,994,994,3,1,993,8.96537256427109,-0.264096157625318,8.9653754979372,
999.354,0.228000000000065,994,994,3,1,993,8.84873178787529,-0.281198169104755,8.8487347215414,
999.364,0.238000000000056,994,994,3,1,993,8.73129467479885,-0.298338774591684,8.73129760846496,
999.374,0.248000000000047,994,994,3,1,993,8.6115412786603,-0.315317497588694,8.61154424026608,
999.386,0.259999999999991,994,994,3,1,993.25,8.46712094731629,-0.335936220362782,8.4671238809824,
999.396,0.270000000000096,994,994,3,1,993.25,8.34955729544163,-0.352765126153827,8.34956025704741,
999.406,0.280000000000086,994,994,3,1,993.25,8.23265391401947,-0.369355343282223,8.23265684768558,
999.416,0.290000000000077,994,994,3,1,993.25,8.11454926617444,-0.385920386761427,8.11455219984055,
999.426,0.300000000000068,994,994,3,1,993.25,7.99544015899301,-0.402743276208639,7.99544312059879,
999.436,0.310000000000059,994,994,3,1,993.25,7.87641875445843,-0.419227899983525,7.87642171606421,
999.446,0.32000000000005,994,994,3,1,993.25,7.75667843408883,-0.436158855445683,7.75668136775494,
999.456,0.330000000000041,994,994,3,1,993.25,7.63521261513233,-0.453381640836596,7.63521557673812,
999.466,0.340000000000032,994,994,3,1,993.25,7.5132973305881,-0.469543682411313,7.51330029219389,
999.476,0.350000000000023,994,994,3,1,993.25,7.39360224455595,-0.486313849687576,7.39360520616174,
999.486,0.360000000000014,994,994,3,1,993.25,7.27529346942902,-0.502811768092215,7.27529637515545,
999.496,0.370000000000005,994,994,3,1,993.25,7.15582927688956,-0.518430252559483,7.155832182616,
999.506,0.379999999999995,994,994,3,1,993.25,7.03788075596094,-0.534765194170177,7.03788371756673,
999.516,0.3900000000001,994,994,3,1,993.25,6.92084921523929,-0.550696263089776,6.92085217684507,
999.526,0.400000000000091,994,994,3,1,993.25,6.80418125353753,-0.566080855205655,6.80418418720365,
999.536,0.410000000000082,994,994,3,1,993.25,6.68898641131818,-0.581858684308827,6.68898934498429,
999.546,0.420000000000073,994,994,3,1,993.25,6.57088142819703,-0.597842107526958,6.57088436186314,
999.556,0.430000000000064,994,994,3,1,993.25,6.4519324991852,-0.613582595251501,6.45193543285131,
999.566,0.440000000000055,994,994,3,1,993.25,6.33365797810256,-0.629134494811296,6.33366091176867,
999.576,0.450000000000045,994,994,3,1,993.25,6.21521081775427,-0.644576130434871,6.21521377936006,
999.586,0.460000000000036,994,994,3,1,993.25,6.09732088632882,-0.660368329845369,6.09732381999493,
999.596,0.470000000000027,994,994,3,1,993.25,5.97866462543607,-0.675778058357537,5.97866758704185,
999.606,0.480000000000018,994,994,3,1,993.25,5.85992496460676,-0.691588274203241,5.85992792621255,
999.616,0.490000000000009,994,994,3,1,993.25,5.7416330371052,-0.706988056190312,5.74163597077131,
999.626,0.5,994,994,3,1,993.5,5.62242862768471,-0.722709102556109,5.62243156135082,
999.636,0.509999999999991,994,994,3,1,993.5,5.50673531368375,-0.734222531318665,5.50673827528954,
999.643,0.517000000000053,994,994,3,1,993.5,5.46154917217791,-0.736475279554725,5.46155210584402,
999.646,0.520000000000096,994,994,3,1,993.5,5.45674723573029,-0.735358586534858,5.4567501693964,
999.656,0.530000000000086,994,994,3,1,993.5,5.48153498210013,-0.726594594307244,5.48153791576624,
999.666,0.540000000000077,994,994,3,1,993.5,5.57070476934314,-0.708528710529208,5.57070773094893,
999.676,0.550000000000068,994,994,3,1,993.5,5.69680592045188,-0.68609245121479,5.69680888205767,
999.686,0.560000000000059,994,994,3,1,993.5,5.83380404859781,-0.662713656201959,5.8338070102036,
999.696,0.57000000000005,994,994,3,1,993.5,5.970115698874,-0.640505333431065,5.97011866047978,
999.706,0.580000000000041,994,994,3,1,993.5,6.09998244792223,-0.619680066592991,6.09998535364866,
999.716,0.590000000000032,994,994,3,1,993.5,6.22576757334173,-0.599993267096579,6.22577050700784,
999.726,0.600000000000023,994,994,3,1,993.5,6.35163922794163,-0.58037138544023,6.35164216160774,
999.736,0.610000000000014,994,994,3,1,993.5,6.47804179228842,-0.561098274774849,6.47804472595453,
999.746,0.620000000000005,994,994,3,1,993.5,6.60211022011936,-0.542124505154788,6.60211315378547,
999.756,0.629999999999995,994,994,3,1,993.5,6.72658405266702,-0.523555809631944,6.72658698633313,
999.766,0.6400000000001,994,994,3,1,993.5,6.8514606077224,-0.505267274565995,6.85146354138851,
999.776,0.650000000000091,994,994,3,1,993.5,6.97450479492545,-0.487335892394185,6.97450775653124,
999.786,0.660000000000082,994,994,3,1,993.5,7.09604482166469,-0.469878218136728,7.0960477553308,
999.796,0.670000000000073,994,994,3,1,993.5,7.21660064533353,-0.452318540774286,7.21660360693932,
999.806,0.680000000000064,994,994,3,1,993.5,7.33728189021349,-0.434686569496989,7.33728485181928,
999.816,0.690000000000055,994,994,3,1,993.5,7.45964158326387,-0.417349012568593,7.45964454486966,
999.826,0.700000000000045,994,994,3,1,993.5,7.58004186674952,-0.400468488223851,7.58004482835531,
999.836,0.710000000000036,994,994,3,1,993.5,7.6982138492167,-0.38328729569912,7.69821681082249,
999.846,0.720000000000027,994,994,3,1,993.5,7.81891987659037,-0.366664952598512,7.81892281025648,
999.856,0.730000000000018,994,994,3,1,993.5,7.93926252052188,-0.349590587429702,7.93926548212767,
999.866,0.740000000000009,994,994,3,1,993.5,8.05814109742641,-0.332888341508806,8.0581440590322,
999.876,0.75,994,994,3,1,993.75,8.17366814240813,-0.316812316887081,8.17367110401392,
999.886,0.759999999999991,994,994,3,1,993.75,8.28883739188313,-0.30082724057138,8.28884035348892,
999.896,0.770000000000096,994,994,3,1,993.75,8.40485818684101,-0.284976223483682,8.4048611484468,
999.906,0.780000000000086,994,994,3,1,993.75,8.51928974501788,-0.268597230315208,8.519292678684,
999.916,0.790000000000077,994,994,3,1,993.75,8.63502692431211,-0.253055556677282,8.6350298859179,
999.926,0.800000000000068,994,994,3,1,993.75,8.75171690247953,-0.236317431554198,8.75171983614564,
999.936,0.810000000000059,994,994,3,1,993.75,8.87034156359732,-0.220009158365428,8.87034449726343,
999.946,0.82000000000005,994,994,3,1,993.75,8.98984601721168,-0.20376518368721,8.98984897881746,
999.956,0.830000000000041,994,994,3,1,993.75,9.10965861752629,-0.18710623960942,9.10966157913208,
999.966,0.840000000000032,994,994,3,1,993.75,9.23054876737297,-0.170483803376555,9.23055170103908,
999.976,0.850000000000023,994,994,3,1,993.75,9.35103326104581,-0.153877036646008,9.35103619471192,
999.986,0.860000000000014,994,994,3,1,993.75,9.46884635835886,-0.138449557125568,9.46884931996465,
999.996,0.870000000000005,994,994,3,1,993.75,9.58413613960147,-0.122239468619227,9.58413910120726,
1000.006,0.879999999999995,994,994,3,1,993.75,9.70179235562682,-0.106417834758759,9.70179526135325,
1000.016,0.8900000000001,994,994,3,1,993.75,9.8215068038553,-0.0909288227558136,9.82150973752141,
1000.026,0.900000000000091,994,994,3,1,993.75,9.94300383143127,-0.07461694534868,9.94300676509738,
1000.036,0.910000000000082,994,994,3,1,993.75,10.0638857670128,-0.0593541981652379,10.0638887286186,
1000.046,0.920000000000073,994,994,3,1,993.75,10.1844802033156,-0.0440108310431242,10.1844831369817,
1000.056,0.930000000000064,994,994,3,1,993.75,10.3077550046146,-0.0294139189645648,10.3077579662204,
1000.066,0.940000000000055,994,994,3,1,993.75,10.4345837328583,-0.0164058851078153,10.4345866665244,
1000.076,0.950000000000045,994,994,3,1,993.75,10.564644606784,-0.00824545510113239,10.5646475404501,
1000.086,0.960000000000036,994,994,3,1,993.75,10.7047991640866,-0.00420975498855114,10.7048021256924,
1000.096,0.970000000000027,994,994,3,1,993.75,10.8537251595408,-0.00190927647054195,10.8537280932069,
1000.106,0.980000000000018,994,994,3,1,993.75,11.0077103599906,-0.00243648421019316,11.0077133215964,
