"Total Time (s)","Cycle Elapsed Time (s)","Total Cycles","Elapsed Cycles","Step","Loop 1","Total Cycle Count(Linear Waveform)","Position(Linear:Position) (mm)","Force(Linear:Load) (kN)","Displacement(Linear:Digital Position) (mm)",
6.194,0,1,1,3,1,0,11.4516485016793,-0.0199815537780523,11.4516455680132,
6.207,0.0129999999999999,1,1,3,1,0,11.4515428896993,-0.0200693355873227,11.4515399560332,
6.217,0.0230000000000006,1,1,3,1,0,11.4494960289449,-0.0206447439268231,11.4494930952787,
6.227,0.0330000000000004,1,1,3,1,0,11.4370756410062,-0.0226087775081396,11.4370727352798,
6.237,0.0430000000000001,1,1,3,1,0,11.4066090714186,-0.0265200762078166,11.4066061377525,
6.247,0.0529999999999999,1,1,3,1,0,11.356929782778,-0.0326924212276936,11.3569268770516,
6.257,0.0630000000000006,1,1,3,1,0,11.2953077908605,-0.0410743243992329,11.2953049130738,
6.267,0.0730000000000004,1,1,3,1,0,11.2307031825185,-0.050638890825212,11.230700276792,
6.277,0.0830000000000002,1,1,3,1,0,11.161234471947,-0.0615990813821554,11.1612315662205,
6.287,0.093,1,1,3,1,0,11.0802578832954,-0.0748941209167242,11.0802549496293,
6.297,0.103,1,1,3,1,0,10.9824458230287,-0.0907493848353624,10.9824428893626,
6.307,0.113,1,1,3,1,0,10.8730234019458,-0.108735929243267,10.8730204962194,
6.317,0.123,1,1,3,1,0,10.7585636526346,-0.128417736850679,10.7585607469082,
6.327,0.133,1,1,3,1,0,10.6308759190142,-0.150035903789103,10.6308730132878,
6.337,0.143,1,1,3,1,0,10.4874816164374,-0.174175333231688,10.487478710711,
6.347,0.153,1,1,3,1,0,10.3311029914767,-0.200557601638138,10.3311001136899,
6.357,0.163,1,1,3,1,0,10.1638953667134,-0.229202699847519,10.1638924330473,
6.367,0.173,1,1,3,1,0,9.98392674140632,-0.259184902533889,9.98392380774021,
6.377,0.183,1,1,3,1,0,9.79290573857724,-0.290684243664145,9.79290280491114,
6.387,0.193000000000001,1,1,3,1,0,9.59317356348038,-0.323202856816351,9.59317065775394,
6.394,0.2,1,1,3,1,0,9.44809363223612,-0.346751743927598,9.44809069857001,
6.404,0.21,1,1,3,1,0,9.23639771528542,-0.378328650258482,9.23639483749866,
6.414,0.22,1,1,3,1,0,9.06699053943157,-0.401831064373255,9.06698763370514,
6.424,0.23,1,1,3,1,0,8.95907233469188,-0.416577686555684,8.95906940102577,
6.434,0.24,1,1,3,1,0,8.87358983047307,-0.428086845204234,8.87358689680695,
6.444,0.25,1,1,3,1,0.25,8.77030558884144,-0.442670700140297,8.770302683115,
6.454,0.26,1,1,3,1,0.25,8.64260774105787,-0.461030965670943,8.64260483533144,
6.464,0.27,1,1,3,1,0.25,8.50955584086478,-0.48010375816375,8.50955290719867,
6.474,0.28,1,1,3,1,0.25,8.38561096228659,-0.497312513180077,8.38560808449984,
6.484,0.29,1,1,3,1,0.25,8.26952548697591,-0.513695827685297,8.26952258124948,
6.494,0.3,1,1,3,1,0.25,8.15215411596,-0.529945841990411,8.15215123817325,
6.504,0.310000000000001,1,1,3,1,0.25,8.02966165356338,-0.547055839560926,8.02965871989727,
6.514,0.32,1,1,3,1,0.25,7.90617420338094,-0.564113245345652,7.90617126971483,
6.524,0.33,1,1,3,1,0.25,7.7829313930124,-0.581100918352604,7.78292845934629,
6.534,0.34,1,1,3,1,0.25,7.66279217787087,-0.597292478196323,7.66278924420476,
6.544,0.350000000000001,1,1,3,1,0.25,7.54158874042332,-0.61420014128089,7.54158580675721,
6.554,0.36,1,1,3,1,0.25,7.41610748693347,-0.630529685877264,7.41610458120704,
6.564,0.37,1,1,3,1,0.25,7.29518484324217,-0.646873465739191,7.29518193751574,
6.574,0.38,1,1,3,1,0.25,7.17413630336523,-0.662592924199998,7.1741333976388,
6.584,0.390000000000001,1,1,3,1,0.25,7.05276254564524,-0.678935898467898,7.0527596399188,
6.594,0.4,1,1,3,1,0.25,6.93060966208577,-0.694600846618414,6.93060675635934,
6.604,0.41,1,1,3,1,0.25,6.80900537408888,-0.71071395650506,6.80900249630213,
6.614,0.42,1,1,3,1,0.25,6.6867543105036,-0.726442653685808,6.68675143271685,
6.624,0.430000000000001,1,1,3,1,0.25,6.56469829380512,-0.742109473794699,6.56469538807869,
6.634,0.44,1,1,3,1,0.25,6.4431921299547,-0.757588883861899,6.44318925216794,
6.644,0.45,1,1,3,1,0.25,6.32065990939736,-0.773203168064356,6.32065700367093,
6.654,0.46,1,1,3,1,0.25,6.20064650662243,-0.788026913069189,6.20064362883568,
6.664,0.47,1,1,3,1,0.25,6.08155734837055,-0.802787430584431,6.08155444264412,
6.674,0.48,1,1,3,1,0.25,5.95993009395897,-0.817992324009538,5.95992716029286,
6.684,0.49,1,1,3,1,0.25,5.83833751268685,-0.832753758877516,5.83833457902074,
6.694,0.5,1,1,3,1,0.5,5.71860733442009,-0.847680079750717,5.71860440075397,
6.704,0.51,1,1,3,1,0.5,5.60445654205978,-0.856876503676176,5.60445360839367,
6.705,0.511,1,1,3,1,0.5,5.59653754346073,-0.856917002238333,5.59653460979462,
6.71,0.516,1,1,3,1,0.5,5.57741308584809,-0.854855892248452,5.57741018012166,
6.72,0.526,1,1,3,1,0.5,5.62999662011862,-0.837819119915366,5.62999371439219,
6.73,0.536,1,1,3,1,0.5,5.78098791651428,-0.809429031796753,5.78098503872752,
6.74,0.546,1,1,3,1,0.5,5.93836943618953,-0.781963551416993,5.93836650252342,
6.75,0.556,1,1,3,1,0.5,6.04926712810993,-0.761713441461325,6.0492642223835,
6.76,0.566,1,1,3,1,0.5,6.12969657406211,-0.747089069336653,6.12969366833568,
6.77,0.576000000000001,1,1,3,1,0.5,6.21656779199839,-0.731395618058741,6.21656488627195,
6.78,0.586,1,1,3,1,0.5,6.32133076898754,-0.713255503214896,6.32132783532143,
6.79,0.596,1,1,3,1,0.5,6.43574271351099,-0.694084786809981,6.43573980778456,
6.8,0.606,1,1,3,1,0.5,6.55103112570941,-0.675575514324009,6.55102824792266,
6.81,0.616000000000001,1,1,3,1,0.5,6.66034391149878,-0.658051054924726,6.66034100577235,
6.82,0.626,1,1,3,1,0.5,6.76594393327832,-0.641075228340924,6.76594102755189,
6.83,0.636,1,1,3,1,0.5,6.87621111050248,-0.623133038170636,6.87620820477605,
6.84,0.646,1,1,3,1,0.5,6.9913724809885,-0.605482063256204,6.99136957526207,
6.85,0.656000000000001,1,1,3,1,0.5,7.1064019203186,-0.587383122183383,7.10639901459217,
6.86,0.666,1,1,3,1,0.5,7.22348811104894,-0.569500867277384,7.2234852053225,
6.87,0.676,1,1,3,1,0.5,7.33987801708281,-0.551743470132351,7.33987513929605,
6.88,0.686,1,1,3,1,0.5,7.45301468297839,-0.534671358764172,7.45301177725196,
6.89,0.696000000000001,1,1,3,1,0.5,7.56700188852847,-0.51728795748204,7.56699895486236,
6.9,0.706,1,1,3,1,0.5,7.68093229271472,-0.500227608717978,7.68092935904861,
6.91,0.716,1,1,3,1,0.5,7.79819841496646,-0.482492167502642,7.79819548130035,
6.92,0.726,1,1,3,1,0.5,7.91733657941222,-0.464611169882119,7.91733367368579,
6.93,0.736,1,1,3,1,0.5,8.03479495458305,-0.447075506672263,8.03479202091694,
6.94,0.746,1,1,3,1,0.5,8.15037254244089,-0.430045463144779,8.15036963671446,
6.954,0.76,1,1,3,1,0.75,8.31333512440324,-0.406161090359092,8.31333221867681,
6.964,0.77,1,1,3,1,0.75,8.42844952829182,-0.388810434378684,8.42844659462571,
6.974,0.78,1,1,3,1,0.75,8.54611795395613,-0.371606228873134,8.54611504822969,
6.984,0.79,1,1,3,1,0.75,8.66245477460325,-0.354111245833337,8.66245189681649,
6.994,0.8,1,1,3,1,0.75,8.77887072041631,-0.337433670647442,8.77886781468987,
7.004,0.810000000000001,1,1,3,1,0.75,8.89553418383002,-0.320046884007752,8.89553127810359,
7.014,0.82,1,1,3,1,0.75,9.01227087713778,-0.303210290148854,9.01226794347167,
7.024,0.83,1,1,3,1,0.75,9.12973285652697,-0.28575926553458,9.12972992286086,
7.034,0.84,1,1,3,1,0.75,9.24839101731777,-0.268425443209708,9.24838811159134,
7.044,0.850000000000001,1,1,3,1,0.75,9.3673540558666,-0.251150550320745,9.36735117807984,
7.054,0.86,1,1,3,1,0.75,9.4856125395745,-0.233882539905608,9.48560966178775,
7.064,0.87,1,1,3,1,0.75,9.60508251562715,-0.215953919105232,9.60507960990071,
7.074,0.88,1,1,3,1,0.75,9.72664478234947,-0.198590247891843,9.72664184868336,
7.084,0.890000000000001,1,1,3,1,0.75,9.84913752414286,-0.180321922525764,9.84913459047675,
7.094,0.9,1,1,3,1,0.75,9.97092269361019,-0.162964155897498,9.97091978788376,
7.104,0.91,1,1,3,1,0.75,10.0884409155697,-0.145847788080573,10.0884379819036,
7.114,0.92,1,1,3,1,0.75,10.2055410761386,-0.129116671159863,10.2055381424725,
7.124,0.930000000000001,1,1,3,1,0.75,10.3263729158789,-0.11172161437571,10.3263699822128,
7.134,0.94,1,1,3,1,0.75,10.4506050981581,-0.0943928863853216,10.4506021924317,
7.144,0.95,1,1,3,1,0.75,10.5734081659466,-0.0776022998616099,10.5734052322805,
7.154,0.96,1,1,3,1,0.75,10.6920401751995,-0.0614991597831249,10.6920372694731,
7.164,0.970000000000001,1,1,3,1,0.75,10.8127617649734,-0.0459858030080795,10.812758859247,
7.174,0.98,1,1,3,1,0.75,10.9365030471236,-0.0317827146500349,10.9365001134574,
7.184,0.99,1,1,3,1,0.75,11.0597668401897,-0.0191244529560208,11.0597639344633,
7.194,1,1,1,3,1,1,11.1884184926748,-0.0102553889155388,11.1884155869484,
7.208,0.0140000000000002,2,2,3,1,1,11.3428945653141,-0.0114638917148113,11.3428916595876,
7.211,0.0170000000000003,2,2,3,1,1,11.3484222628176,-0.0118261156603694,11.3484193570912,
7.221,0.0270000000000001,2,2,3,1,1,11.2722393404692,-0.0171052571386099,11.2722364068031,
7.231,0.0369999999999999,2,2,3,1,1,11.0735424421728,-0.033666742965579,11.0735395364463,
7.241,0.0470000000000006,2,2,3,1,1,10.891454173252,-0.0591624062508345,10.8914512395859,
7.251,0.0570000000000004,2,2,3,1,1,10.8004037104547,-0.0754667818546295,10.8004008047283,
7.261,0.0670000000000002,2,2,3,1,1,10.7507424987853,-0.0861885352060199,10.7507395930588,
7.271,0.077,2,2,3,1,1,10.6710552982986,-0.100399819202721,10.6710523925722,
7.281,0.0870000000000006,2,2,3,1,1,10.5511168576777,-0.120423194020987,10.5511139519513,
7.291,0.0970000000000004,2,2,3,1,1,10.4245274886489,-0.141298770904541,10.4245245829225,
7.301,0.107,2,2,3,1,1,10.3125573601574,-0.160053945146501,10.3125544264913,
7.311,0.117,2,2,3,1,1,10.2114481385797,-0.177201116457582,10.2114452049136,
7.321,0.127,2,2,3,1,1,10.1081262622029,-0.194350401870906,10.1081233844161,
7.331,0.137,2,2,3,1,1,9.996741944924,-0.212834682315588,9.99673906713724,
7.341,0.147,2,2,3,1,1,9.88144054077566,-0.231666415929794,9.88143760710955,
7.351,0.157,2,2,3,1,1,9.76828792132437,-0.249811462126672,9.76828498765826,
7.361,0.167,2,2,3,1,1,9.65758354403079,-0.267483247444034,9.65758066624403,
7.371,0.177,2,2,3,1,1,9.54602144658566,-0.285607110708952,9.54601854085922,
7.381,0.187,2,2,3,1,1,9.43242967128754,-0.303608546964824,9.4324267655611,
7.391,0.197,2,2,3,1,1,9.31809240952134,-0.321248243562877,9.31808950379491,
7.401,0.207,2,2,3,1,1,9.2061204649508,-0.338883795775473,9.20611755922437,
7.411,0.217000000000001,2,2,3,1,1,9.09172749146819,-0.356810670346022,9.09172458574176,
7.421,0.227,2,2,3,1,1,8.97532350383699,-0.374380047433078,8.97532062605023,
7.431,0.237,2,2,3,1,1,8.85960099287331,-0.392344016581774,8.8595980592072,
7.441,0.247,2,2,3,1,1,8.74581906013191,-0.409458251670003,8.74581618234515,
7.454,0.26,2,2,3,1,1.25,8.59575142152607,-0.43223193846643,8.59574854373932,
7.464,0.27,2,2,3,1,1.25,8.4783670026809,-0.449491846375167,8.47836406901479,
7.474,0.28,2,2,3,1,1.25,8.36189749650657,-0.467085628770292,8.36189456284046,
7.484,0.29,2,2,3,1,1.25,8.24479102157056,-0.484205740503967,8.24478808790445,
7.494,0.3,2,2,3,1,1.25,8.12715369276702,-0.50145011395216,8.12715075910091,
7.504,0.310000000000001,2,2,3,1,1.25,8.00642595626414,-0.519118844531477,8.00642302259803,
7.514,0.32,2,2,3,1,1.25,7.88678308948874,-0.536503423936665,7.88678018376231,
7.524,0.33,2,2,3,1,1.25,7.76666172780096,-0.553690032102168,7.76665879413486,
7.534,0.34,2,2,3,1,1.25,7.64758405275643,-0.570849650539458,7.64758111909032,
7.544,0.350000000000001,2,2,3,1,1.25,7.52823589369655,-0.587413157336414,7.52823298797011,
7.554,0.36,2,2,3,1,1.25,7.40717056207359,-0.604888969101012,7.40716768428683,
7.564,0.37,2,2,3,1,1.25,7.28490871377289,-0.621743462979794,7.28490578010678,
7.574,0.38,2,2,3,1,1.25,7.16720030643046,-0.638083950616419,7.16719737276435,
7.584,0.390000000000001,2,2,3,1,1.25,7.04839507117867,-0.654358020983636,7.04839216545224,
7.594,0.4,2,2,3,1,1.25,6.92715179175138,-0.67144900560379,6.92714888602495,
7.604,0.41,2,2,3,1,1.25,6.80638041347265,-0.687199649401009,6.80637750774622,
7.614,0.42,2,2,3,1,1.25,6.68922387063503,-0.703762881457806,6.6892209649086,
7.624,0.430000000000001,2,2,3,1,1.25,6.57128306105733,-0.719351661391556,6.5712801553309,
7.634,0.44,2,2,3,1,1.25,6.44935078918934,-0.73573213070631,6.44934788346291,
7.644,0.45,2,2,3,1,1.25,6.32697740569711,-0.751866968348622,6.32697449997067,
7.654,0.46,2,2,3,1,1.25,6.20507637038827,-0.768243107013404,6.20507346466184,
7.664,0.470000000000001,2,2,3,1,1.25,6.08583963476121,-0.783856743946671,6.08583675697446,
7.674,0.48,2,2,3,1,1.25,5.96557382494211,-0.799707025289536,5.96557091921568,
7.684,0.49,2,2,3,1,1.25,5.84471446461976,-0.814849063754082,5.844711586833,
7.694,0.5,2,2,3,1,1.5,5.72562868706882,-0.830442300066352,5.72562575340271,
7.704,0.51,2,2,3,1,1.5,5.6125146523118,-0.839814678765833,5.61251174658537,
7.706,0.512,2,2,3,1,1.5,5.59818386100233,-0.839968104846776,5.59818092733622,
7.71,0.516,2,2,3,1,1.5,5.58641547337174,-0.838412879966199,5.58641256764531,
7.72,0.526,2,2,3,1,1.5,5.64141944982111,-0.821143696084619,5.641416516155,
7.73,0.536,2,2,3,1,1.5,5.79498935490847,-0.792963770218194,5.79498644918203,
7.74,0.546,2,2,3,1,1.5,5.95327120274305,-0.765639473684132,5.95326829701662,
7.75,0.556,2,2,3,1,1.5,6.05924639850855,-0.746968644671142,6.05924349278212,
7.76,0.566,2,2,3,1,1.5,6.13441318273544,-0.732177440077066,6.13441027700901,
7.77,0.576000000000001,2,2,3,1,1.5,6.22172277420759,-0.717187258414924,6.22171986848116,
7.78,0.586,2,2,3,1,1.5,6.32936247624457,-0.698558031581342,6.32935954257846,
7.79,0.596,2,2,3,1,1.5,6.44532065838575,-0.679856068454683,6.44531775265932,
7.8,0.606,2,2,3,1,1.5,6.55834316276014,-0.661124493926764,6.55834028497338,
7.81,0.616000000000001,2,2,3,1,1.5,6.66695103049278,-0.644018133170903,6.66694812476635,
7.82,0.626,2,2,3,1,1.5,6.77417188882828,-0.626614550128579,6.77416898310184,
7.83,0.636,2,2,3,1,1.5,6.88374767079949,-0.609465707093477,6.88374476507306,
7.84,0.646,2,2,3,1,1.5,6.99713023379445,-0.591548411175609,6.99712732806802,
7.85,0.656000000000001,2,2,3,1,1.5,7.11309344507754,-0.573873030953109,7.11309051141143,
7.86,0.666,2,2,3,1,1.5,7.22961751744151,-0.555756776593626,7.22961461171508,
7.87,0.676,2,2,3,1,1.5,7.34479073435068,-0.538418125361204,7.34478782862425,
7.88,0.686,2,2,3,1,1.5,7.4564203619957,-0.521536166779697,7.45641745626926,
7.89,0.696000000000001,2,2,3,1,1.5,7.56951492279768,-0.504335314035416,7.56951201707125,
7.9,0.706,2,2,3,1,1.5,7.68571207299829,-0.486607104539871,7.68570916727185,
7.91,0.716,2,2,3,1,1.5,7.80363293364644,-0.469201365485787,7.80363002792001,
7.92,0.726,2,2,3,1,1.5,7.92114607058465,-0.451496662572026,7.92114313691854,
7.93,0.736000000000001,2,2,3,1,1.5,8.03652869537473,-0.434660883620381,8.03652578964829,
7.94,0.746,2,2,3,1,1.5,8.15205400809646,-0.417457707226276,8.15205110237002,
7.954,0.76,2,2,3,1,1.75,8.31597729586065,-0.393278659321368,8.31597436219454,
7.964,0.77,2,2,3,1,1.75,8.4321434609592,-0.376212955452502,8.43214055523276,
7.974,0.78,2,2,3,1,1.75,8.54719209484756,-0.359174073673785,8.5471892170608,
7.984,0.79,2,2,3,1,1.75,8.66297665983438,-0.342168505303562,8.66297375410795,
7.994,0.8,2,2,3,1,1.75,8.78195906057954,-0.325059024617076,8.78195615485311,
8.004,0.81,2,2,3,1,1.75,8.89886565506458,-0.307603706605732,8.89886274933815,
8.014,0.819999999999999,2,2,3,1,1.75,9.01430172845721,-0.290826340205967,9.01429882273078,
8.024,0.830000000000001,2,2,3,1,1.75,9.1312228795141,-0.273454412817955,9.13121994584799,
8.034,0.840000000000001,2,2,3,1,1.75,9.25074636004865,-0.256406250409782,9.25074342638254,
8.044,0.850000000000001,2,2,3,1,1.75,9.3689414486289,-0.239081089384854,9.36893854290247,
8.054,0.86,2,2,3,1,1.75,9.48657145723701,-0.221821796149015,9.48656855151057,
8.064,0.87,2,2,3,1,1.75,9.60697137750685,-0.20410178694874,9.60696844384074,
8.074,0.88,2,2,3,1,1.75,9.73052373155951,-0.186445428989828,9.73052082583308,
8.084,0.89,2,2,3,1,1.75,9.85297735780477,-0.168845085427165,9.85297445207834,
8.094,0.899999999999999,2,2,3,1,1.75,9.97108443640172,-0.151928602717817,9.97108155861497,
8.104,0.910000000000001,2,2,3,1,1.75,10.087246382609,-0.13512259349227,10.0872434489429,
8.114,0.920000000000001,2,2,3,1,1.75,10.2067537978292,-0.118212196975946,10.2067508921027,
8.124,0.930000000000001,2,2,3,1,1.75,10.329971993342,-0.100798001512885,10.3299691155553,
8.134,0.94,2,2,3,1,1.75,10.4533434379846,-0.0840099388733506,10.4533405043185,
8.144,0.95,2,2,3,1,1.75,10.5733487103134,-0.0676142238080502,10.5733457766473,
8.154,0.96,2,2,3,1,1.75,10.6929326523095,-0.0519050424918532,10.6929297186434,
8.164,0.97,2,2,3,1,1.75,10.8168466296047,-0.0370108895003796,10.8168436959386,
8.174,0.98,2,2,3,1,1.75,10.9421391785145,-0.023315423168242,10.942136272788,
8.184,0.990000000000001,2,2,3,1,1.75,11.0673262830824,-0.013285088352859,11.0673233494163,
8.194,1,2,2,3,1,2,11.197865428403,-0.00685604754835367,11.1978624947369,
8.208,0.0139999999999993,3,3,3,1,2,11.3596519455314,-0.00986873637884855,11.3596490398049,
8.211,0.0169999999999995,3,3,3,1,2,11.3666311930865,-0.00987864565104246,11.3666282594204,
8.221,0.0269999999999992,3,3,3,1,2,11.2938617449254,-0.014004516415298,11.2938588112593,
8.231,0.036999999999999,3,3,3,1,2,11.0872549843043,-0.0249626720324159,11.0872521065176,
8.241,0.0469999999999988,3,3,3,1,2,10.8897220809013,-0.0495827430859208,10.8897191472352,
8.251,0.0569999999999986,3,3,3,1,2,10.7958359923214,-0.0664350390434265,10.7958330586553,
8.261,0.0670000000000002,3,3,3,1,2,10.7532805111259,-0.0759508972987533,10.7532775774598,
8.271,0.077,3,3,3,1,2,10.6820734776556,-0.0892738346010447,10.6820705719292,
8.281,0.0869999999999997,3,3,3,1,2,10.5620396789163,-0.108942468650639,10.5620367452502,
8.291,0.0969999999999995,3,3,3,1,2,10.4294896870852,-0.131023596040905,10.4294867813587,
8.301,0.106999999999999,3,3,3,1,2,10.3141193836927,-0.14981553889811,10.3141164779663,
8.311,0.116999999999999,3,3,3,1,2,10.2134792972356,-0.166987790726125,10.2134764194489,
8.321,0.126999999999999,3,3,3,1,2,10.112096183002,-0.183989489451051,10.1120932772756,
8.331,0.136999999999999,3,3,3,1,2,10.0008532963693,-0.202341475524008,10.0008503906429,
8.341,0.146999999999998,3,3,3,1,2,9.88509460352361,-0.220968783833086,9.8850916698575,
8.351,0.157,3,3,3,1,2,9.77204097434878,-0.239370097406209,9.77203806862235,
8.361,0.167,3,3,3,1,2,9.66115096583962,-0.257054059766233,9.66114806011319,
8.371,0.177,3,3,3,1,2,9.54832912422717,-0.275558400899172,9.54832619056106,
8.381,0.186999999999999,3,3,3,1,2,9.43382847122848,-0.293503566645086,9.43382553756237,
8.391,0.196999999999999,3,3,3,1,2,9.31958343833685,-0.311416373588145,9.31958053261042,
8.401,0.206999999999999,3,3,3,1,2,9.20595958828926,-0.329253603704274,9.20595668256283,
8.411,0.216999999999999,3,3,3,1,2,9.09066589549184,-0.347103890962899,9.09066298976541,
8.421,0.226999999999999,3,3,3,1,2,8.97582865320146,-0.364920031279325,8.97582577541471,
8.431,0.237,3,3,3,1,2,8.8609653711319,-0.382659682072699,8.86096246540546,
8.441,0.247,3,3,3,1,2,8.7467438634485,-0.400016894564033,8.74674092978239,
8.451,0.257,3,3,3,1,2.25,8.63007408566773,-0.417579654604197,8.63007120788097,
8.461,0.266999999999999,3,3,3,1,2.25,8.51070379838347,-0.435446808114648,8.51070089265704,
8.471,0.276999999999999,3,3,3,1,2.25,8.39261591434479,-0.453309807926416,8.39261300861835,
8.481,0.286999999999999,3,3,3,1,2.25,8.275489769876,-0.470465049147606,8.27548686414957,
8.491,0.296999999999999,3,3,3,1,2.25,8.15903060138226,-0.487678786739707,8.15902769565582,
8.501,0.306999999999999,3,3,3,1,2.25,8.04054929874837,-0.504950904287398,8.04054636508226,
8.511,0.317,3,3,3,1,2.25,7.92056361213326,-0.522652394138277,7.92056070640683,
8.521,0.327,3,3,3,1,2.25,7.79892479069531,-0.539829637855291,7.7989218570292,
8.531,0.337,3,3,3,1,2.25,7.67867719754577,-0.557375573553145,7.67867429181933,
8.541,0.347,3,3,3,1,2.25,7.55933345295489,-0.574448313564062,7.55933057516813,
8.551,0.356999999999999,3,3,3,1,2.25,7.43868355639279,-0.591603629291058,7.43868062272668,
8.561,0.366999999999999,3,3,3,1,2.25,7.31745312921703,-0.608732546679676,7.31745019555092,
8.571,0.376999999999999,3,3,3,1,2.25,7.19692940823734,-0.625737956725061,7.19692647457123,
8.581,0.386999999999999,3,3,3,1,2.25,7.07560527138412,-0.642227078787982,7.07560233771801,
8.591,0.396999999999998,3,3,3,1,2.25,6.95603943429887,-0.658892937935889,6.95603650063276,
