"Total Time (s)","Cycle Elapsed Time (s)","Total Cycles","Elapsed Cycles","Step","Loop 1","Total Cycle Count(Linear Waveform)","Position(Linear:Position) (mm)","Force(Linear:Load) (kN)","Displacement(Linear:Digital Position) (mm)",
997.129,0,992,992,3,1,991,11.0034183785319,-0.00251692719757557,11.0009851120412,
997.139,0.00999999999999091,992,992,3,1,991,11.1144137755036,-0.00661466736346483,11.1144248396158,
997.144,0.0149999999999864,992,992,3,1,991,11.1380247864872,-0.00900599174201488,11.1380358226597,
997.154,0.0249999999999773,992,992,3,1,991,11.0696328151971,-0.00961475539952517,11.0696438513696,
997.164,0.0349999999999682,992,992,3,1,991,10.8417660277337,-0.00560801941901445,10.8471864648163,
997.174,0.0449999999999591,992,992,3,1,991,10.5805241782218,-0.00520194880664349,10.5805352143943,
997.184,0.05499999999995,992,992,3,1,991,10.4212971869856,-0.0102941133081913,10.4231532476842,
997.194,0.0650000000000546,992,992,3,1,991,10.3790536243469,-0.0162361934781075,10.3793466836214,
997.204,0.0750000000000455,992,992,3,1,991,10.3555156756192,-0.0208054017275572,10.3555267117918,
997.214,0.0850000000000364,992,992,3,1,991,10.2631178218871,-0.0252136727795005,10.2631288580596,
997.224,0.0950000000000273,992,992,3,1,991,10.0943276379257,-0.0308447424322367,10.0943386740983,
997.234,0.105000000000018,992,992,3,1,991,9.9112934153527,-0.0359536334872246,9.91130445152521,
997.244,0.115000000000009,992,992,3,1,991,9.77823852561414,-0.0421180250123143,9.78022819384933,
997.254,0.125,992,992,3,1,991,9.70122604630888,-0.046783615835011,9.70123708248138,
997.264,0.134999999999991,992,992,3,1,991,9.62522587738931,-0.0522527052089572,9.62523691356182,
997.274,0.144999999999982,992,992,3,1,991,9.50924629345536,-0.056496043689549,9.51195985078812,
997.284,0.154999999999973,992,992,3,1,991,9.36472401022911,-0.0616801530122757,9.36770187690854,
997.294,0.164999999999964,992,992,3,1,991,9.22481389716268,-0.0669356435537338,9.22741938382387,
997.304,0.174999999999955,992,992,3,1,991,9.10750731825829,-0.0721964426338673,9.10751832649112,
997.314,0.184999999999945,992,992,3,1,991,9.00790041312575,-0.0771720288321376,9.00791147723794,
997.324,0.19500000000005,992,992,3,1,991,8.90272216871381,-0.0818952359259129,8.90273317694664,
997.334,0.205000000000041,992,992,3,1,991,8.78092722035944,-0.0871807802468538,8.78093825653195,
997.344,0.215000000000032,992,992,3,1,991,8.65492064505816,-0.0918952422216535,8.65493170917034,
997.354,0.225000000000023,992,992,3,1,991,8.52657261304557,-0.0965479761362076,8.52901032194495,
997.364,0.235000000000014,992,992,3,1,991,8.41167979873717,-0.101589788682759,8.41169083490968,
997.374,0.245000000000005,992,992,3,1,991,8.29759052954614,-0.106353107839823,8.29979656264186,
997.384,0.254999999999995,992,992,3,1,991.25,8.18625759333372,-0.110704889521003,8.18626860156655,
997.394,0.264999999999986,992,992,3,1,991.25,8.0667039938271,-0.115374117158353,8.06671505793929,
997.404,0.274999999999977,992,992,3,1,991.25,7.94282513670623,-0.120156984776258,7.94283617287874,
997.414,0.284999999999968,992,992,3,1,991.25,7.81694535166025,-0.125025087036192,7.81695635989308,
997.424,0.294999999999959,992,992,3,1,991.25,7.6980697363615,-0.129368100315332,7.70042633637786,
997.434,0.30499999999995,992,992,3,1,991.25,7.58020067587495,-0.134611162357032,7.58021168410778,
997.444,0.315000000000055,992,992,3,1,991.25,7.461097240448,-0.138557222671807,7.46110830456018,
997.454,0.325000000000045,992,992,3,1,991.25,7.34431799501181,-0.14290988445282,7.34432905912399,
997.464,0.335000000000036,992,992,3,1,991.25,7.22506256774068,-0.147100952453911,7.22507357597351,
997.474,0.345000000000027,992,992,3,1,991.25,7.1053549926728,-0.152045339345932,7.10536602884531,
997.484,0.355000000000018,992,992,3,1,991.25,6.98318464681506,-0.156467310152948,6.98557773604989,
997.494,0.365000000000009,992,992,3,1,991.25,6.86299628578126,-0.160292168147862,6.8653916940093,
997.504,0.375,992,992,3,1,991.25,6.74827049486339,-0.164853790774941,6.7482815310359,
997.514,0.384999999999991,992,992,3,1,991.25,6.63083813153207,-0.168935842812061,6.63315190002322,
997.524,0.394999999999982,992,992,3,1,991.25,6.51343535631895,-0.172980893403292,6.51584213599563,
997.534,0.404999999999973,992,992,3,1,991.25,6.39705433510244,-0.176942278631032,6.39706537127495,
997.544,0.414999999999964,992,992,3,1,991.25,6.27700237557292,-0.1815454242751,6.27701338380575,
997.554,0.424999999999955,992,992,3,1,991.25,6.1611137073487,-0.185433751903474,6.16112474352121,
997.564,0.434999999999945,992,992,3,1,991.25,6.04180382564664,-0.189191745594144,6.04416260495782,
997.574,0.44500000000005,992,992,3,1,991.25,5.9266940318048,-0.193079491145909,5.92670504003763,
997.584,0.455000000000041,992,992,3,1,991.25,5.80490567721426,-0.196929625235498,5.80727934837341,
997.594,0.465000000000032,992,992,3,1,991.25,5.68773552775383,-0.201299479231238,5.68774653598666,
997.604,0.475000000000023,992,992,3,1,991.25,5.56992692872882,-0.205617356114089,5.56993793696165,
997.614,0.485000000000014,992,992,3,1,991.25,5.45184943825006,-0.208918331190944,5.45186050236225,
997.624,0.495000000000005,992,992,3,1,991.25,5.3285922948271,-0.212405426427722,5.33099345862865,
997.634,0.504999999999995,992,992,3,1,991.5,5.2111338917166,-0.215932675637305,5.21114492788911,
997.635,0.505999999999972,992,992,3,1,991.5,5.19985145889223,-0.215936526656151,5.20209638401866,
997.644,0.514999999999986,992,992,3,1,991.5,5.1386499311775,-0.211929217912257,5.13866096735001,
997.654,0.524999999999977,992,992,3,1,991.5,5.20334593020379,-0.207700189203024,5.2033569663763,
997.664,0.534999999999968,992,992,3,1,991.5,5.40912933647633,-0.202493537217379,5.40914040058851,
997.674,0.544999999999959,992,992,3,1,991.5,5.64875269308686,-0.197314214892685,5.64465958625078,
997.684,0.55499999999995,992,992,3,1,991.5,5.80045245587826,-0.19206462893635,5.80046346411109,
997.694,0.565000000000055,992,992,3,1,991.5,5.85809818468988,-0.186303686350584,5.85810922086239,
997.704,0.575000000000045,992,992,3,1,991.5,5.90448179282248,-0.181911974214017,5.90312020853162,
997.714,0.585000000000036,992,992,3,1,991.5,6.00539376027882,-0.177768249996006,6.00540479645133,
997.724,0.595000000000027,992,992,3,1,991.5,6.16753022186458,-0.172950685955584,6.16754125803709,
997.734,0.605000000000018,992,992,3,1,991.5,6.32973999716341,-0.167725933715701,6.32679473608732,
997.744,0.615000000000009,992,992,3,1,991.5,6.45466189831495,-0.163332419469953,6.45259933546185,
997.754,0.625,992,992,3,1,991.5,6.54498299583793,-0.158506468869746,6.54330359771848,
997.764,0.634999999999991,992,992,3,1,991.5,6.63398120552301,-0.153798670507967,6.6339922696352,
997.774,0.644999999999982,992,992,3,1,991.5,6.75339301116764,-0.14927230309695,6.75340404734015,
997.784,0.654999999999973,992,992,3,1,991.5,6.89543626271188,-0.144879757426679,6.89263734966516,
997.794,0.664999999999964,992,992,3,1,991.5,7.0284169446677,-0.139746554195881,7.02842798084021,
997.804,0.674999999999955,992,992,3,1,991.5,7.15025986544788,-0.135076204314828,7.14802153408527,
997.814,0.684999999999945,992,992,3,1,991.5,7.2578936163336,-0.130501971580088,7.25790465250611,
997.824,0.69500000000005,992,992,3,1,991.5,7.36470230855048,-0.125486683100462,7.36471334472299,
997.834,0.705000000000041,992,992,3,1,991.5,7.48389755375683,-0.121368719264865,7.48390858992934,
997.844,0.715000000000032,992,992,3,1,991.5,7.61238181963563,-0.116669246926904,7.60986015200615,
997.854,0.725000000000023,992,992,3,1,991.5,7.73844687268138,-0.111319064162672,7.73595079779625,
997.864,0.735000000000014,992,992,3,1,991.5,7.85722008906305,-0.107141113840044,7.85723112523556,
997.874,0.745000000000005,992,992,3,1,991.5,7.97073304653168,-0.102191031910479,7.97074411064386,
997.887,0.758000000000038,992,992,3,1,991.75,8.12246404588223,-0.0964971585199237,8.12014980241656,
997.897,0.768000000000029,992,992,3,1,991.75,8.23814045637846,-0.0912777939811349,8.23815146461129,
997.907,0.77800000000002,992,992,3,1,991.75,8.35779209621251,-0.0872069550678134,8.35780313238502,
997.917,0.788000000000011,992,992,3,1,991.75,8.47674010321498,-0.0822409894317389,8.47675116732717,
997.927,0.798000000000002,992,992,3,1,991.75,8.59651576727629,-0.0776770291849971,8.59652677550912,
997.937,0.807999999999993,992,992,3,1,991.75,8.71280053630471,-0.0730501348152757,8.71048176661134,
997.947,0.817999999999984,992,992,3,1,991.75,8.82863916456699,-0.0680896453559399,8.826321400702,
997.957,0.827999999999975,992,992,3,1,991.75,8.94262114539742,-0.0636851787567139,8.94263220950961,
997.967,0.837999999999965,992,992,3,1,991.75,9.06103217974305,-0.0592385930940509,9.06104324385524,
997.977,0.847999999999956,992,992,3,1,991.75,9.17947207577527,-0.0544202653691173,9.17948311194777,
997.987,0.857999999999947,992,992,3,1,991.75,9.30197437293828,-0.0494354916736484,9.29960377514362,
997.997,0.868000000000052,992,992,3,1,991.75,9.41640411503613,-0.0449843145906925,9.41641515120864,
998.007,0.878000000000043,992,992,3,1,991.75,9.53119793906808,-0.0398807879537344,9.53120894730091,
998.017,0.888000000000034,992,992,3,1,991.75,9.64984190650284,-0.0359061406925321,9.64985294267535,
998.027,0.898000000000025,992,992,3,1,991.75,9.77190627716482,-0.0306052714586258,9.77191731333733,
998.037,0.908000000000015,992,992,3,1,991.75,9.89232631400228,-0.0266680354252458,9.89233732223511,
998.047,0.918000000000006,992,992,3,1,991.75,10.0082188099623,-0.0219095777720213,10.0082298740745,
998.057,0.927999999999997,992,992,3,1,991.75,10.124515062198,-0.0174382934346795,10.1245260983706,
998.067,0.937999999999988,992,992,3,1,991.75,10.2486723102629,-0.0132879242300987,10.2461973577738,
998.077,0.947999999999979,992,992,3,1,991.75,10.3711922653019,-0.00955133233219385,10.3712032735348,
998.087,0.95799999999997,992,992,3,1,991.75,10.493155606091,-0.00643842853605747,10.4931666143239,
998.097,0.967999999999961,992,992,3,1,991.75,10.6147150788456,-0.00419460237026215,10.6123535893857,
998.107,0.977999999999952,992,992,3,1,991.75,10.7349701598287,-0.00301589258015156,10.7349811680615,
998.117,0.988000000000056,992,992,3,1,991.75,10.8549773320556,-0.00268490053713322,10.8549883402884,
998.12,0.990999999999985,992,992,3,1,991.75,10.8919000346214,-0.00243979971855879,10.8919110707939,
998.129,1,992,992,3,1,992,11.0061565227807,-0.0025646761059761,11.0061675310135,
998.131,0.00199999999995271,993,993,3,1,992,11.0283441189677,-0.00228102318942547,11.0283551551402,
998.141,0.0120000000000573,993,993,3,1,992,11.1308106500655,-0.00802995637059212,11.1308216862381,
998.144,0.0149999999999864,993,993,3,1,992,11.1396870296448,-0.00908959191292524,11.1396980658174,
998.154,0.0249999999999773,993,993,3,1,992,11.0690794698894,-0.00955460593104362,11.0690904781222,
998.164,0.0349999999999682,993,993,3,1,992,10.844573546201,-0.005525560118258,10.8445846103132,
998.174,0.0449999999999591,993,993,3,1,992,10.5834095086902,-0.00503059010952711,10.5834205448627,
998.184,0.05499999999995,993,993,3,1,992,10.4236847441643,-0.0102878734469414,10.4236957803369,
998.194,0.0650000000000546,993,993,3,1,992,10.3804618120193,-0.0163452886044979,10.3804728761315,
998.204,0.0750000000000455,993,993,3,1,992,10.3548731748015,-0.0206003850325942,10.354884210974,
998.214,0.0850000000000364,993,993,3,1,992,10.2627979405224,-0.0254809064790607,10.2628090046346,
998.224,0.0950000000000273,993,993,3,1,992,10.0935417506844,-0.0307271396741271,10.0935527868569,
998.234,0.105000000000018,993,993,3,1,992,9.9113495182246,-0.0364505406469107,9.91136055439711,
998.244,0.115000000000009,993,993,3,1,992,9.78079355321825,-0.0418779393658042,9.78080458939075,
998.254,0.125,993,993,3,1,992,9.70157884061336,-0.0472021661698818,9.7015898488462,
998.264,0.134999999999991,993,993,3,1,992,9.62611748836935,-0.0517321145161986,9.62612852454185,
998.274,0.144999999999982,993,993,3,1,992,9.51225589960814,-0.0567454611882567,9.51226696372032,
998.284,0.154999999999973,993,993,3,1,992,9.36453857459128,-0.0616493308916688,9.36753714457154,
998.294,0.164999999999964,993,993,3,1,992,9.2264907527715,-0.0670580845326185,9.22650178894401,
998.304,0.174999999999955,993,993,3,1,992,9.10700669512153,-0.0723433634266257,9.10911267623305,
998.314,0.184999999999945,993,993,3,1,992,9.0066170040518,-0.0774019910022616,9.00864282622933,
998.324,0.19500000000005,993,993,3,1,992,8.89980909414589,-0.0823014043271542,8.90212615951896,
998.334,0.205000000000041,993,993,3,1,992,8.78223599866033,-0.0867647211998701,8.78224706277251,
998.344,0.215000000000032,993,993,3,1,992,8.65175376646221,-0.0915864668786526,8.65431105718017,
998.354,0.225000000000023,993,993,3,1,992,8.52981129661202,-0.0963524356484413,8.52982230484485,
998.364,0.235000000000014,993,993,3,1,992,8.4109518583864,-0.101224705576897,8.41322455555201,
998.374,0.245000000000005,993,993,3,1,992,8.29807014204562,-0.106495129875839,8.30035312101245,
998.389,0.259999999999991,993,993,3,1,992.25,8.1238410808146,-0.113474712707102,8.12624663114548,
998.399,0.269999999999982,993,993,3,1,992.25,8.00238632597029,-0.118071567267179,8.00487656146288,
998.409,0.279999999999973,993,993,3,1,992.25,7.87859139963984,-0.122798131778836,7.87860240787268,
998.419,0.289999999999964,993,993,3,1,992.25,7.75984165258706,-0.12706991750747,7.75985268875957,
998.429,0.299999999999955,993,993,3,1,992.25,7.6419286429882,-0.131950220093131,7.64193970710039,
998.439,0.309999999999945,993,993,3,1,992.25,7.5199291203171,-0.136305661872029,7.52234045416117,
998.449,0.32000000000005,993,993,3,1,992.25,7.40389628335834,-0.140612334944308,7.40390734747052,
998.459,0.330000000000041,993,993,3,1,992.25,7.28292625397444,-0.145356827415526,7.28293731808662,
998.469,0.340000000000032,993,993,3,1,992.25,7.16538679786026,-0.149814574979246,7.16539783403277,
998.479,0.350000000000023,993,993,3,1,992.25,7.04254338517785,-0.153841865248978,7.04496346414089,
998.489,0.360000000000014,993,993,3,1,992.25,6.92237564362586,-0.158213628455997,6.92481318488717,
998.499,0.370000000000005,993,993,3,1,992.25,6.80689578875899,-0.162301515229046,6.80690685287118,
998.509,0.379999999999995,993,993,3,1,992.25,6.68990654870868,-0.166852814145386,6.69220911338925,
998.519,0.389999999999986,993,993,3,1,992.25,6.57352938316762,-0.171187119558454,6.57354041934013,
998.529,0.399999999999977,993,993,3,1,992.25,6.45287283696234,-0.174927324987948,6.45288387313485,
998.539,0.409999999999968,993,993,3,1,992.25,6.3340655900538,-0.179478786885738,6.33407665416598,
998.549,0.419999999999959,993,993,3,1,992.25,6.22063089162111,-0.183275123126805,6.2206419557333,
998.559,0.42999999999995,993,993,3,1,992.25,6.10409664921463,-0.187107580713928,6.10410768538713,
998.569,0.440000000000055,993,993,3,1,992.25,5.98381717689335,-0.191387613303959,5.98618011921644,
998.579,0.450000000000045,993,993,3,1,992.25,5.86334156803787,-0.195645694620907,5.86577525362372,
998.589,0.460000000000036,993,993,3,1,992.25,5.74668212793767,-0.198591919615865,5.74669316411018,
998.599,0.470000000000027,993,993,3,1,992.25,5.6285874824971,-0.203331857919693,5.62859851866961,
998.609,0.480000000000018,993,993,3,1,992.25,5.51115319132805,-0.207059551030397,5.51354868337512,
998.619,0.490000000000009,993,993,3,1,992.25,5.38979080505669,-0.211152248084545,5.39225270971656,
998.629,0.5,993,993,3,1,992.5,5.27148085646331,-0.214515486732125,5.27149189263582,
998.634,0.504999999999995,993,993,3,1,992.5,5.21249701268971,-0.216064220294356,5.21250804886222,
998.644,0.514999999999986,993,993,3,1,992.5,5.13785968534648,-0.211868365295231,5.138003770262,
998.645,0.515999999999963,993,993,3,1,992.5,5.13810977339744,-0.212232563644648,5.13795493170619,
998.655,0.525999999999954,993,993,3,1,992.5,5.22119334898889,-0.206580157391727,5.21795198321342,
998.665,0.536000000000058,993,993,3,1,992.5,5.43289689347148,-0.202448079362512,5.43290790170431,
998.675,0.546000000000049,993,993,3,1,992.5,5.66541116684675,-0.196624482050538,5.66542217507958,
998.685,0.55600000000004,993,993,3,1,992.5,5.80831755883992,-0.190935432910919,5.80832859501243,
998.695,0.566000000000031,993,993,3,1,992.5,5.86249021813273,-0.18574136774987,5.86250122636557,
998.705,0.576000000000022,993,993,3,1,992.5,5.91215847060084,-0.181813882663846,5.91216947883368,
998.715,0.586000000000013,993,993,3,1,992.5,6.02154538035393,-0.1767782215029,6.02155638858676,
998.725,0.596000000000004,993,993,3,1,992.5,6.1840957403183,-0.17221509013325,6.18410674855113,
998.735,0.605999999999995,993,993,3,1,992.5,6.34162668138742,-0.167336398735642,6.34163768962026,
998.745,0.615999999999985,993,993,3,1,992.5,6.46525902673602,-0.162256583571434,6.46527003496885,
998.755,0.625999999999976,993,993,3,1,992.5,6.55293390154839,-0.158174568787217,6.5512927249074,
998.765,0.635999999999967,993,993,3,1,992.5,6.64442039094865,-0.153509736992419,6.64443142712116,
998.775,0.645999999999958,993,993,3,1,992.5,6.76977625116706,-0.148723181337118,6.76707711070776,
998.785,0.655999999999949,993,993,3,1,992.5,6.90963755361736,-0.144274742342532,6.90964858978987,
998.795,0.666000000000054,993,993,3,1,992.5,7.04294465482235,-0.139051172882318,7.04295566305518,
998.805,0.676000000000045,993,993,3,1,992.5,7.16067996807396,-0.134284771047533,7.16069100424647,
998.815,0.686000000000035,993,993,3,1,992.5,7.26868512108922,-0.129962135106325,7.26869612932205,
998.825,0.696000000000026,993,993,3,1,992.5,7.3790645878762,-0.1258355518803,7.37907562404871,
998.835,0.706000000000017,993,993,3,1,992.5,7.49934825114906,-0.120587353594601,7.49935928732157,
998.845,0.716000000000008,993,993,3,1,992.5,7.62614233419299,-0.115740913897753,7.62360893189907,
998.855,0.725999999999999,993,993,3,1,992.5,7.75161316618323,-0.111269825138152,7.749158218503,
998.865,0.73599999999999,993,993,3,1,992.5,7.86857343278825,-0.106540098786354,7.86858446896076,
998.875,0.745999999999981,993,993,3,1,992.5,7.98163725994527,-0.101797888055444,7.98164829611778,
998.889,0.759999999999991,993,993,3,1,992.75,8.14294377341866,-0.0956568028777838,8.1429547816515,
998.899,0.769999999999982,993,993,3,1,992.75,8.26430981978774,-0.090657752007246,8.26432082802057,
998.909,0.779999999999973,993,993,3,1,992.75,8.38525811210275,-0.08597023319453,8.38280897587538,
998.919,0.789999999999964,993,993,3,1,992.75,8.50219831801951,-0.081581431441009,8.50220935419202,
998.929,0.799999999999955,993,993,3,1,992.75,8.61803247593343,-0.0769922742620111,8.61804351210594,
998.939,0.809999999999945,993,993,3,1,992.75,8.73268037103117,-0.0718981632962823,8.73269140720367,
998.949,0.82000000000005,993,993,3,1,992.75,8.85089353658259,-0.0673164008185267,8.84856965392828,
998.959,0.830000000000041,993,993,3,1,992.75,8.96791169419885,-0.0626515038311481,8.96557420492172,
998.969,0.840000000000032,993,993,3,1,992.75,9.08441313542426,-0.0582890724763274,9.08442417159677,
998.979,0.850000000000023,993,993,3,1,992.75,9.20692166313529,-0.0530894147232175,9.20454299077392,
998.989,0.860000000000014,993,993,3,1,992.75,9.32372161187232,-0.0488213635981083,9.32373264804482,
998.999,0.870000000000005,993,993,3,1,992.75,9.4388841278851,-0.0442675547674298,9.43889519199729,
999.009,0.879999999999995,993,993,3,1,992.75,9.55595989711583,-0.0394492736086249,9.55361371859908,
999.019,0.889999999999986,993,993,3,1,992.75,9.67383775860071,-0.0343614909797907,9.6738488227129,
999.029,0.899999999999977,993,993,3,1,992.75,9.8000315297395,-0.0299905380234122,9.79760332033038,
999.039,0.909999999999968,993,993,3,1,992.75,9.9164330586791,-0.0254762498661876,9.91644412279129,
999.049,0.919999999999959,993,993,3,1,992.75,10.0335352029651,-0.0208504451438785,10.0312606617808,
999.059,0.92999999999995,993,993,3,1,992.75,10.1504226308316,-0.0165183003991842,10.1480254903436,
999.069,0.940000000000055,993,993,3,1,992.75,10.2698403038085,-0.0124266976490617,10.2698513679206,
999.079,0.950000000000045,993,993,3,1,992.75,10.3968077525496,-0.00873920042067766,10.3943125717342,
999.089,0.960000000000036,993,993,3,1,992.75,10.518151698634,-0.00609831884503365,10.5181627348065,
999.099,0.970000000000027,993,993,3,1,992.75,10.6407027784735,-0.00403475482016802,10.640713814646,
