"Total Time (s)","Cycle Elapsed Time (s)","Total Cycles","Elapsed Cycles","Step","Loop 1","Total Cycle Count(Linear Waveform)","Position(Linear:Position) (mm)","Force(Linear:Load) (kN)","Displacement(Linear:Digital Position) (mm)",
998.197,0,993,993,3,1,992,11.2189483176917,-0.00127563718706369,11.2189498543739,
998.207,0.00999999999999091,993,993,3,1,992,11.3310655485839,-0.00405558850616217,11.3310670852661,
998.215,0.0180000000000291,993,993,3,1,992,11.3711991626769,-0.00565968919545412,11.3712006993592,
998.216,0.0190000000000055,993,993,3,1,992,11.371174743399,-0.00497759319841862,11.3712543994188,
998.226,0.0289999999999964,993,993,3,1,992,11.3251147605479,-0.00561369117349386,11.3251163251698,
998.236,0.0389999999999873,993,993,3,1,992,11.1682009231299,-0.0039770221337676,11.1682024598122,
998.246,0.0489999999999782,993,993,3,1,992,10.9455303288996,-0.00203964300453663,10.9455318935215,
998.256,0.0589999999999691,993,993,3,1,992,10.693139238283,-0.000104587525129318,10.6979339383543,
998.266,0.0690000000000737,993,993,3,1,992,10.4701843019575,0.000463798642158508,10.4701858386397,
998.273,0.0760000000000218,993,993,3,1,992,10.338224703446,0.000771419145166874,10.3416554443538,
998.283,0.0860000000000127,993,993,3,1,992,10.1908878888935,9.92277637124062E-05,10.1908894255757,
998.293,0.0960000000000036,993,993,3,1,992,10.0805503316224,-0.000436105765402317,10.0805518962443,
998.303,0.105999999999995,993,993,3,1,992,9.98975456692278,-0.00110761728137732,9.98975610360503,
998.313,0.115999999999985,993,993,3,1,992,9.90453486330807,-0.0041579082608223,9.90453639999032,
998.323,0.125999999999976,993,993,3,1,992,9.82197588309645,-0.0133706210181117,9.82197744771838,
998.333,0.135999999999967,993,993,3,1,992,9.7460110578686,-0.0246393028646708,9.74601259455085,
998.343,0.146000000000072,993,993,3,1,992,9.67025390826166,-0.0369950430467725,9.67183023691177,
998.353,0.156000000000063,993,993,3,1,992,9.58724557422101,-0.0504711223766208,9.58724711090326,
998.363,0.166000000000054,993,993,3,1,992,9.48819964192808,-0.0657367985695601,9.48820123448968,
998.373,0.176000000000045,993,993,3,1,992,9.38076292164624,-0.0821472005918622,9.38300600275397,
998.383,0.186000000000035,993,993,3,1,992,9.26617937162519,-0.098954695276916,9.26853585988283,
998.393,0.196000000000026,993,993,3,1,992,9.1489389538765,-0.115244006738067,9.14894051849842,
998.403,0.206000000000017,993,993,3,1,992,9.03289929963648,-0.131490030325949,9.03290083631873,
998.413,0.216000000000008,993,993,3,1,992,8.91875163652003,-0.146609675139189,8.91875317320227,
998.423,0.225999999999999,993,993,3,1,992,8.7984328251332,-0.162132335826755,8.80080493167043,
998.433,0.23599999999999,993,993,3,1,992,8.68281025439501,-0.177335077896714,8.68281181901693,
998.443,0.245999999999981,993,993,3,1,992,8.5633510351181,-0.192079814150929,8.56335259974003,
998.457,0.259999999999991,993,993,3,1,992.25,8.39576709084213,-0.212595188058913,8.39576868340373,
998.467,0.269999999999982,993,993,3,1,992.25,8.27478353865445,-0.227328524924815,8.27478513121605,
998.477,0.279999999999973,993,993,3,1,992.25,8.15427683293819,-0.24132464081049,8.15427839756012,
998.487,0.289999999999964,993,993,3,1,992.25,8.03430363535881,-0.25532893370837,8.03674383088946,
998.497,0.300000000000068,993,993,3,1,992.25,7.91221003979445,-0.269135665148497,7.91221160441637,
998.507,0.310000000000059,993,993,3,1,992.25,7.79159808531403,-0.282520707696676,7.79159964993596,
998.517,0.32000000000005,993,993,3,1,992.25,7.66723405569792,-0.296735996380448,7.66723562031984,
998.527,0.330000000000041,993,993,3,1,992.25,7.54589821211994,-0.309481876902282,7.54589974880219,
998.537,0.340000000000032,993,993,3,1,992.25,7.42471584118903,-0.322500513866544,7.42471737787127,
998.547,0.350000000000023,993,993,3,1,992.25,7.30233558453619,-0.335341524332762,7.30233712121844,
998.557,0.360000000000014,993,993,3,1,992.25,7.18130621127784,-0.347434380091727,7.18130780383945,
998.567,0.370000000000005,993,993,3,1,992.25,7.06436309963465,-0.359317124821246,7.06436466425657,
998.577,0.379999999999995,993,993,3,1,992.25,6.94684046320617,-0.371296955272555,6.9492163695395,
998.587,0.389999999999986,993,993,3,1,992.25,6.82900889776647,-0.382403507828712,6.82901043444872,
998.597,0.399999999999977,993,993,3,1,992.25,6.7130015976727,-0.393598317168653,6.71300316229463,
998.607,0.409999999999968,993,993,3,1,992.25,6.59864271059632,-0.404030992649496,6.59864427521825,
998.617,0.420000000000073,993,993,3,1,992.25,6.48171192035079,-0.415278570726514,6.48171348497271,
998.627,0.430000000000064,993,993,3,1,992.25,6.36307599954307,-0.426846332848072,6.36307759210467,
998.637,0.440000000000055,993,993,3,1,992.25,6.2458011880517,-0.437488704919815,6.24580275267363,
998.647,0.450000000000045,993,993,3,1,992.25,6.12588526681066,-0.448317630216479,6.12588683143258,
998.657,0.460000000000036,993,993,3,1,992.25,6.01082794368267,-0.459068124182522,6.0108295083046,
998.667,0.470000000000027,993,993,3,1,992.25,5.88933541439474,-0.469682491384447,5.88933695107698,
998.677,0.480000000000018,993,993,3,1,992.25,5.77326072379947,-0.47968540340662,5.77326228842139,
998.687,0.490000000000009,993,993,3,1,992.25,5.6536893825978,-0.489637055434287,5.65604142844677,
998.697,0.5,993,993,3,1,992.5,5.53687233477831,-0.499361869879067,5.5392380990088,
998.707,0.509999999999991,993,993,3,1,992.5,5.42343093082309,-0.506481053307652,5.42343249544501,
998.708,0.510999999999967,993,993,3,1,992.5,5.4159315302968,-0.506658940576017,5.41593309491873,
998.718,0.521000000000072,993,993,3,1,992.5,5.36955717019737,-0.500040682964027,5.36953188478947,
998.728,0.531000000000063,993,993,3,1,992.5,5.397660266608,-0.484705045819283,5.39766183122993,
998.738,0.541000000000054,993,993,3,1,992.5,5.49094235524535,-0.461382623761892,5.49094391986728,
998.748,0.551000000000045,993,993,3,1,992.5,5.62408005818725,-0.43550506234169,5.6213385052979,
998.758,0.561000000000035,993,993,3,1,992.5,5.76152005232871,-0.41031667497009,5.76152158901095,
998.768,0.571000000000026,993,993,3,1,992.5,5.90618477202952,-0.387536799535155,5.90340815484524,
998.778,0.581000000000017,993,993,3,1,992.5,6.0452688485384,-0.365589614957571,6.04252891615033,
998.788,0.591000000000008,993,993,3,1,992.5,6.18220679461956,-0.345992455258965,6.17947144433856,
998.798,0.600999999999999,993,993,3,1,992.5,6.31266902200878,-0.327200288884342,6.31267055869102,
998.808,0.61099999999999,993,993,3,1,992.5,6.4436562359333,-0.309132584370673,6.44365780055523,
998.818,0.620999999999981,993,993,3,1,992.5,6.57350175082684,-0.292161288671196,6.57350331544876,
998.828,0.630999999999972,993,993,3,1,992.5,6.70323642902076,-0.275660175830126,6.70323796570301,
998.838,0.640999999999963,993,993,3,1,992.5,6.83115421794355,-0.259402124211192,6.8311557546258,
998.848,0.651000000000067,993,993,3,1,992.5,6.95664139464497,-0.24429690092802,6.9566429592669,
998.858,0.661000000000058,993,993,3,1,992.5,7.08266392350197,-0.229195230640471,7.08266548812389,
998.868,0.671000000000049,993,993,3,1,992.5,7.20927726477385,-0.214430065825582,7.20927882939577,
998.878,0.68100000000004,993,993,3,1,992.5,7.33627175912261,-0.199919822625816,7.33375366777182,
998.888,0.691000000000031,993,993,3,1,992.5,7.46244066394865,-0.185335515998304,7.45991036295891,
998.898,0.701000000000022,993,993,3,1,992.5,7.58982206694782,-0.172089515253901,7.58730947971344,
998.908,0.711000000000013,993,993,3,1,992.5,7.71125122904778,-0.158310714177787,7.7112527936697,
998.918,0.721000000000004,993,993,3,1,992.5,7.83028291538358,-0.145982862450182,7.8302844800055,
998.928,0.730999999999995,993,993,3,1,992.5,7.94662442989647,-0.134016894735396,7.94662602245808,
998.938,0.740999999999985,993,993,3,1,992.5,8.06425823830068,-0.122274244204164,8.06425977498293,
998.957,0.759999999999991,993,993,3,1,992.75,8.28729537315667,-0.0996533129364252,8.28729690983891,
998.967,0.769999999999982,993,993,3,1,992.75,8.4054999332875,-0.0876622647047043,8.4055015258491,
998.977,0.779999999999973,993,993,3,1,992.75,8.52192526683211,-0.0764407310634851,8.52192683145404,
998.987,0.789999999999964,993,993,3,1,992.75,8.6407838948071,-0.0653496524319053,8.64078545942903,
998.997,0.800000000000068,993,993,3,1,992.75,8.75867913477123,-0.0541823776438832,8.75868067145348,
999.007,0.810000000000059,993,993,3,1,992.75,8.8758381921798,-0.0433009583503008,8.87347111478448,
999.017,0.82000000000005,993,993,3,1,992.75,8.99258396588266,-0.0327352387830615,8.99258550256491,
999.027,0.830000000000041,993,993,3,1,992.75,9.11542014218867,-0.0218963390216231,9.11542167887092,
999.037,0.840000000000032,993,993,3,1,992.75,9.23500201664865,-0.01186010427773,9.23260001465678,
999.047,0.850000000000023,993,993,3,1,992.75,9.35600361786783,-0.00364405568689108,9.35600515455008,
999.057,0.860000000000014,993,993,3,1,992.75,9.48259714990854,-0.000707781873643398,9.48259871453047,
999.067,0.870000000000005,993,993,3,1,992.75,9.62457555346191,-0.000835265964269638,9.62457709014416,
999.077,0.879999999999995,993,993,3,1,992.75,9.77540133520961,-0.001469561830163,9.77540289983153,
999.087,0.889999999999986,993,993,3,1,992.75,9.91853672079742,-0.00168557744473219,9.91853825747967,
999.097,0.899999999999977,993,993,3,1,992.75,10.0543414335698,-0.0014245230704546,10.054342970252,
999.107,0.909999999999968,993,993,3,1,992.75,10.1818172447383,-0.00127086415886879,10.1818188093603,
999.117,0.920000000000073,993,993,3,1,992.75,10.3043594397604,-0.00147581566125154,10.3043610043824,
999.127,0.930000000000064,993,993,3,1,992.75,10.4174770228565,-0.00151967164129019,10.4152635298669,
999.137,0.940000000000055,993,993,3,1,992.75,10.5272917728871,-0.0007273955270648,10.5272933095694,
999.147,0.950000000000045,993,993,3,1,992.75,10.6405467353761,-0.000918074510991573,10.640548299998,
999.157,0.960000000000036,993,993,3,1,992.75,10.7570793293417,-0.00132783316075802,10.7570808939636,
999.167,0.970000000000027,993,993,3,1,992.75,10.872083036229,-0.00138168223202229,10.8720845729113,
999.177,0.980000000000018,993,993,3,1,992.75,10.9857602789998,-0.000867056660354137,10.9857618436217,
999.187,0.990000000000009,993,993,3,1,992.75,11.1010895110667,-0.00124698039144278,11.0987557098269,
999.197,1,993,993,3,1,993,11.2166877184063,-0.00110513065010309,11.2166893109679,
999.207,0.00999999999999091,994,994,3,1,993,11.3304645381868,-0.00416074879467487,11.3286633789539,
999.216,0.0190000000000055,994,994,3,1,993,11.3699989020824,-0.00462384428828955,11.3700004667044,
999.226,0.0289999999999964,994,994,3,1,993,11.3228674605489,-0.00589370261877775,11.3228690251708,
999.236,0.0389999999999873,994,994,3,1,993,11.1676364857703,-0.00388518907129765,11.171611379832,
999.246,0.0489999999999782,994,994,3,1,993,10.9403779171407,-0.00220390502363443,10.9403794817626,
999.256,0.0589999999999691,994,994,3,1,993,10.6931401882321,-6.16023316979408E-05,10.6931417249143,
999.266,0.0690000000000737,994,994,3,1,993,10.4695678409189,0.000345148146152496,10.4695694334805,
999.27,0.0729999999999791,994,994,3,1,993,10.3913735691458,0.000935872085392475,10.391375105828,
999.28,0.08299999999997,994,994,3,1,993,10.2297630161047,0.000393679365515709,10.2325303852558,
999.29,0.0930000000000746,994,994,3,1,993,10.1105560082942,-0.000136191956698895,10.1126417890191,
999.3,0.103000000000065,994,994,3,1,993,10.0156047195196,-0.000864858739078045,10.0156062841415,
999.31,0.113000000000056,994,994,3,1,993,9.9302889034152,-0.0028259539976716,9.93029046803713,
999.32,0.123000000000047,994,994,3,1,993,9.84768697991967,-0.00969319138675928,9.8476885445416,
999.33,0.133000000000038,994,994,3,1,993,9.76942718960345,-0.021083252504468,9.76942872628569,
999.34,0.143000000000029,994,994,3,1,993,9.69492081552744,-0.0332828098908067,9.69492238014936,
999.35,0.15300000000002,994,994,3,1,993,9.61181175895035,-0.0465780682861805,9.6118132956326,
999.36,0.163000000000011,994,994,3,1,993,9.52033935114741,-0.0608348101377487,9.52034091576934,
999.37,0.173000000000002,994,994,3,1,993,9.41611407324672,-0.0771378539502621,9.41611563786864,
999.38,0.182999999999993,994,994,3,1,993,9.30061600171029,-0.0936499238014221,9.30292507633567,
999.39,0.192999999999984,994,994,3,1,993,9.18470892123878,-0.110327997244895,9.1870647110045,
999.4,0.202999999999975,994,994,3,1,993,9.06997525133193,-0.126276868395507,9.06997678801417,
999.41,0.212999999999965,994,994,3,1,993,8.95200982689857,-0.141836944967508,8.95436251536012,
999.42,0.22300000000007,994,994,3,1,993,8.83684686385095,-0.157562573440373,8.8368484005332,
999.43,0.233000000000061,994,994,3,1,993,8.71804852969944,-0.172572149895132,8.71805006638169,
999.44,0.243000000000052,994,994,3,1,993,8.59791562892497,-0.188052598387003,8.59791716560721,
999.457,0.259999999999991,994,994,3,1,993.25,8.39782998897135,-0.212653218768537,8.3978315256536,
999.467,0.269999999999982,994,994,3,1,993.25,8.27702323906124,-0.226792697794735,8.27702477574348,
999.477,0.279999999999973,994,994,3,1,993.25,8.15475683659315,-0.241491701453924,8.15475840121508,
999.487,0.289999999999964,994,994,3,1,993.25,8.03422431461513,-0.255030388943851,8.03422590717673,
999.497,0.300000000000068,994,994,3,1,993.25,7.91199509985745,-0.269384742714465,7.91444186121225,
999.507,0.310000000000059,994,994,3,1,993.25,7.78905792161822,-0.283104362897575,7.78905948624015,
999.517,0.32000000000005,994,994,3,1,993.25,7.66991439275444,-0.296243890188634,7.66991592943668,
999.527,0.330000000000041,994,994,3,1,993.25,7.5494613032788,-0.30918650329113,7.54946283996105,
999.537,0.340000000000032,994,994,3,1,993.25,7.42787637747824,-0.322127141989768,7.42787791416049,
999.547,0.350000000000023,994,994,3,1,993.25,7.30458715930581,-0.334749571047723,7.30458872392774,
999.557,0.360000000000014,994,994,3,1,993.25,7.18417723663151,-0.347240366972983,7.18417877331376,
999.567,0.370000000000005,994,994,3,1,993.25,7.06582389771938,-0.359225547872484,7.06582546234131,
999.577,0.379999999999995,994,994,3,1,993.25,6.94804569706321,-0.370389898307621,6.94804726168513,
999.587,0.389999999999986,994,994,3,1,993.25,6.83137569576502,-0.381981572136283,6.83137726038694,
999.597,0.399999999999977,994,994,3,1,993.25,6.71554930508137,-0.392854604870081,6.71555086970329,
999.607,0.409999999999968,994,994,3,1,993.25,6.60063969902694,-0.403815587051213,6.60064123570919,
999.617,0.420000000000073,994,994,3,1,993.25,6.48129098117352,-0.415028082206845,6.48366579785943,
999.627,0.430000000000064,994,994,3,1,993.25,6.36473097838461,-0.42675151489675,6.36473257094622,
999.637,0.440000000000055,994,994,3,1,993.25,6.24387432821095,-0.437218896113336,6.2462423555553,
999.647,0.450000000000045,994,994,3,1,993.25,6.12819291651249,-0.448228330351412,6.12819448113441,
999.657,0.460000000000036,994,994,3,1,993.25,6.01256134919822,-0.458439388312399,6.01256288588047,
999.667,0.470000000000027,994,994,3,1,993.25,5.89322148822248,-0.469515458680689,5.89322302490473,
999.677,0.480000000000018,994,994,3,1,993.25,5.77382166869938,-0.47960733063519,5.77382320538163,
999.687,0.490000000000009,994,994,3,1,993.25,5.65538850612938,-0.489356955513358,5.65539009869099,
999.697,0.5,994,994,3,1,993.5,5.53799673914909,-0.499644377268851,5.53799830377102,
999.707,0.509999999999991,994,994,3,1,993.5,5.42383066378534,-0.506454152055085,5.42383220046759,
999.717,0.519999999999982,994,994,3,1,993.5,5.3706375695765,-0.50062617752701,5.37063913419843,
999.718,0.521000000000072,994,994,3,1,993.5,5.37039969116449,-0.500145372934639,5.37036756053567,
999.728,0.531000000000063,994,994,3,1,993.5,5.39985395036638,-0.484090261161327,5.39985554292798,
999.738,0.541000000000054,994,994,3,1,993.5,5.49348721280694,-0.460762111470103,5.49111161381006,
999.748,0.551000000000045,994,994,3,1,993.5,5.62106198631227,-0.43538945261389,5.62106352299452,
999.758,0.561000000000035,994,994,3,1,993.5,5.76171454042196,-0.410005054436624,5.76171610504389,
999.768,0.571000000000026,994,994,3,1,993.5,5.90382079593837,-0.386741212569177,5.90382233262062,
999.778,0.581000000000017,994,994,3,1,993.5,6.04263050481677,-0.365646281279624,6.0426320694387,
999.788,0.591000000000008,994,994,3,1,993.5,6.1793502420187,-0.345903751440346,6.17935180664062,
999.798,0.600999999999999,994,994,3,1,993.5,6.31238479167223,-0.327371680177748,6.31238635629415,
999.808,0.61099999999999,994,994,3,1,993.5,6.44206096418202,-0.309301735833287,6.44206255674362,
999.818,0.620999999999981,994,994,3,1,993.5,6.57214784994721,-0.291941603645682,6.57214941456914,
999.828,0.630999999999972,994,994,3,1,993.5,6.70352255925536,-0.275269760750234,6.70352412387729,
999.838,0.640999999999963,994,994,3,1,993.5,6.83046715334058,-0.259308768436313,6.8304687179625,
999.848,0.651000000000067,994,994,3,1,993.5,6.95802368223667,-0.244042687118053,6.95549815893173,
999.858,0.661000000000058,994,994,3,1,993.5,7.08209160715342,-0.229059364646673,7.08209317177534,
999.868,0.671000000000049,994,994,3,1,993.5,7.20952017232776,-0.214416412636638,7.20952173694968,
999.878,0.68100000000004,994,994,3,1,993.5,7.33396709896624,-0.200115712359548,7.33396863564849,
999.888,0.691000000000031,994,994,3,1,993.5,7.46186488308012,-0.185386124067008,7.45932720601559,
999.898,0.701000000000022,994,994,3,1,993.5,7.58718693628907,-0.171752721071243,7.587188500911,
999.908,0.711000000000013,994,994,3,1,993.5,7.71252427250147,-0.158654348924756,7.71252583712339,
999.918,0.721000000000004,994,994,3,1,993.5,7.83166475594044,-0.146049349568784,7.83166632056236,
999.928,0.730999999999995,994,994,3,1,993.5,7.94715011492371,-0.133881540969014,7.94715167954564,
999.938,0.740999999999985,994,994,3,1,993.5,8.06404436007142,-0.122007909230888,8.06404592469334,
999.957,0.759999999999991,994,994,3,1,993.75,8.28767468221486,-0.0994014926254749,8.2876762188971,
999.967,0.769999999999982,994,994,3,1,993.75,8.40340180322528,-0.0881396885961294,8.4034033678472,
999.977,0.779999999999973,994,994,3,1,993.75,8.51995225064456,-0.0768458005040884,8.51995378732681,
999.987,0.789999999999964,994,994,3,1,993.75,8.63746924325824,-0.0653852894902229,8.63747080788016,
999.997,0.800000000000068,994,994,3,1,993.75,8.75626662746072,-0.0541654275730252,8.75626819208264,
1000.007,0.810000000000059,994,994,3,1,993.75,8.87405019253492,-0.0434875814244151,8.87405175715685,
1000.017,0.82000000000005,994,994,3,1,993.75,8.99196121841669,-0.032353401184082,8.99196278303862,
1000.027,0.830000000000041,994,994,3,1,993.75,9.11475559696555,-0.0217728409916162,9.11235976964235,
1000.037,0.840000000000032,994,994,3,1,993.75,9.23273700289428,-0.0120005197823048,9.23273853957653,
1000.047,0.850000000000023,994,994,3,1,993.75,9.35261886566877,-0.00391448847949505,9.3526204302907,
1000.057,0.860000000000014,994,994,3,1,993.75,9.47894350625575,-0.000511338002979755,9.47894504293799,
1000.067,0.870000000000005,994,994,3,1,993.75,9.62060158140957,-0.000875294208526611,9.62060311809182,
1000.077,0.879999999999995,994,994,3,1,993.75,9.77180728688836,-0.00120806042104959,9.77180885151029,
1000.087,0.889999999999986,994,994,3,1,993.75,9.9220251571387,-0.00166144222021103,9.9191895313561,
1000.097,0.899999999999977,994,994,3,1,993.75,10.0553170312196,-0.00123390927910805,10.0553185679018,
1000.107,0.909999999999968,994,994,3,1,993.75,10.182176604867,-0.0015014223754406,10.1821781694889,
1000.117,0.920000000000073,994,994,3,1,993.75,10.3021503053606,-0.00147134065628052,10.3021518699825,
1000.127,0.930000000000064,994,994,3,1,993.75,10.4149013478309,-0.00153025146573782,10.4149028845131,
1000.137,0.940000000000055,994,994,3,1,993.75,10.52505469881,-0.00101214740425348,10.5250562354922,
1000.147,0.950000000000045,994,994,3,1,993.75,10.6386603601277,-0.00112657900899649,10.6386619247496,
1000.157,0.960000000000036,994,994,3,1,993.75,10.7548324763775,-0.00112186186015606,10.7548340409994,
1000.167,0.970000000000027,994,994,3,1,993.75,10.8691200055182,-0.00116132665425539,10.8691215701401,
1000.177,0.980000000000018,994,994,3,1,993.75,10.9831174090505,-0.00111326109617949,10.9831189736724,
1000.187,0.990000000000009,994,994,3,1,993.75,11.1006432864815,-0.000924915075302124,11.0983070544898,
