"Total Time (s)","Cycle Elapsed Time (s)","Total Cycles","Elapsed Cycles","Step","Loop 1","Total Cycle Count(Linear Waveform)","Position(Linear:Position) (mm)","Force(Linear:Load) (kN)","Displacement(Linear:Digital Position) (mm)",
6.128,0,1,1,3,1,0,11.6014561336488,-0.0201001949608326,11.6014590673149,
6.131,0.00300000000000011,1,1,3,1,0,11.6014587879181,-0.0200968096032739,11.6014617495239,
6.148,0.0199999999999996,1,1,3,1,0,11.6014277469367,-0.0200707092881203,11.6014306806028,
6.158,0.0300000000000002,1,1,3,1,0,11.600686730817,-0.020402274094522,11.6006896644831,
6.168,0.04,1,1,3,1,0,11.5930995158851,-0.0224321102723479,11.5931024774909,
6.178,0.0499999999999998,1,1,3,1,0,11.5716864913702,-0.0273398589342833,11.571689452976,
6.188,0.0599999999999996,1,1,3,1,0,11.533553050831,-0.0361698167398572,11.5335559844971,
6.198,0.0700000000000003,1,1,3,1,0,11.4802567474544,-0.0484915263950825,11.4802597090602,
6.208,0.0800000000000001,1,1,3,1,0,11.4203740283847,-0.064790453761816,11.4203769899905,
6.218,0.0899999999999999,1,1,3,1,0,11.3534857984632,-0.0845939945429564,11.3534887321293,
6.228,0.0999999999999996,1,1,3,1,0,11.2764608301222,-0.108755072578788,11.276463791728,
6.238,0.11,1,1,3,1,0,11.1913098581135,-0.136879375204444,11.1913128197193,
6.248,0.12,1,1,3,1,0,11.1003431864083,-0.16815546900034,11.1003461480141,
6.258,0.13,1,1,3,1,0,10.9966616984457,-0.204717414453626,10.9966646321118,
6.268,0.14,1,1,3,1,0,10.8818749431521,-0.245903208851814,10.8818778768182,
6.278,0.15,1,1,3,1,0,10.7556254044175,-0.292383255437016,10.7556283660233,
6.288,0.16,1,1,3,1,0,10.6145521067083,-0.343657238408923,10.6145550683141,
6.298,0.17,1,1,3,1,0,10.4599848389626,-0.400253036059439,10.4599878005683,
6.308,0.18,1,1,3,1,0,10.2988477796316,-0.45892495661974,10.2988507412374,
6.318,0.19,1,1,3,1,0,10.1241854019463,-0.522271022200584,10.1241883635521,
6.328,0.2,1,1,3,1,0,9.93292124010622,-0.592034687288105,9.93292417377234,
6.338,0.21,1,1,3,1,0,9.73399409092963,-0.661373822949827,9.73399702459574,
6.348,0.22,1,1,3,1,0,9.55622895620763,-0.721678626723588,9.55623188987374,
6.358,0.23,1,1,3,1,0,9.40469906665385,-0.771118677221239,9.40470200031996,
6.368,0.24,1,1,3,1,0,9.26719637587667,-0.815387316979468,9.26719933748245,
6.378,0.25,1,1,3,1,0.25,9.13088059052825,-0.859244591556489,9.13088355213404,
6.388,0.26,1,1,3,1,0.25,8.99567065760493,-0.902581671252847,8.99567361921072,
6.398,0.27,1,1,3,1,0.25,8.86549673974514,-0.944140986539423,8.86549970135093,
6.408,0.28,1,1,3,1,0.25,8.73784015886486,-0.984448245726526,8.73784309253097,
6.418,0.29,1,1,3,1,0.25,8.60979898832738,-1.02552734315395,8.60980192199349,
6.428,0.3,1,1,3,1,0.25,8.48028598353267,-1.06640213169158,8.48028894513845,
6.438,0.31,1,1,3,1,0.25,8.35534041747451,-1.10584618058056,8.3553433790803,
6.448,0.32,1,1,3,1,0.25,8.23136486113071,-1.14462951663882,8.2313678227365,
6.458,0.33,1,1,3,1,0.25,8.10623883269727,-1.18405666202307,8.10624176636338,
6.468,0.34,1,1,3,1,0.25,7.9807719681412,-1.22299906332046,7.98077490180731,
6.478,0.35,1,1,3,1,0.25,7.8566518239677,-1.26113505568355,7.85910369828343,
6.488,0.36,1,1,3,1,0.25,7.73397747427225,-1.29922690335661,7.73398043587804,
6.498,0.37,1,1,3,1,0.25,7.60958919301629,-1.33830699604005,7.60959215462208,
6.508,0.38,1,1,3,1,0.25,7.48357356525958,-1.37679142411798,7.48357649892569,
6.518,0.39,1,1,3,1,0.25,7.36131342127919,-1.41453499905765,7.36131638288498,
6.528,0.4,1,1,3,1,0.25,7.23844843916595,-1.45132566802204,7.23845137283206,
6.538,0.41,1,1,3,1,0.25,7.11665589362383,-1.48857118096203,7.11665885522962,
6.548,0.42,1,1,3,1,0.25,6.99582064524293,-1.52443054132164,6.99582360684872,
6.558,0.43,1,1,3,1,0.25,6.87797639518976,-1.56025950331241,6.87797935679555,
6.568,0.44,1,1,3,1,0.25,6.75747809931636,-1.5970761841163,6.75748106092215,
6.578,0.45,1,1,3,1,0.25,6.63390778005123,-1.63452335167676,6.63391074165702,
6.588,0.46,1,1,3,1,0.25,6.50837483815849,-1.672159768641,6.5083777718246,
6.598,0.47,1,1,3,1,0.25,6.3845890481025,-1.7097370326519,6.38459198176861,
6.608,0.48,1,1,3,1,0.25,6.26240288838744,-1.74593767616898,6.26240584999323,
6.618,0.49,1,1,3,1,0.25,6.13980056717992,-1.78351330570877,6.13980352878571,
6.628,0.5,1,1,3,1,0.5,6.01379220373929,-1.82054158765823,6.01379513740539,
6.638,0.51,1,1,3,1,0.5,5.89526457712054,-1.85196216218174,5.89526753872633,
6.646,0.518,1,1,3,1,0.5,5.83904910832644,-1.85987434815615,5.83905206993222,
6.653,0.525,1,1,3,1,0.5,5.82558738067746,-1.85383449308574,5.82559034228325,
6.663,0.535,1,1,3,1,0.5,5.8305093459785,-1.83789963368326,5.83051230758429,
6.673,0.545,1,1,3,1,0.5,5.86213611066341,-1.8115970864892,5.8621390722692,
6.683,0.555,1,1,3,1,0.5,5.91807128861547,-1.7784781800583,5.91807425022125,
6.693,0.565,1,1,3,1,0.5,5.98996899090707,-1.74145281780511,5.98997192457318,
6.703,0.575,1,1,3,1,0.5,6.07357992790639,-1.70110748149455,6.0735828615725,
6.713,0.585,1,1,3,1,0.5,6.16497653536498,-1.65982542093843,6.1649794690311,
6.723,0.595,1,1,3,1,0.5,6.26556160859764,-1.6164042474702,6.26556454226375,
6.733,0.605,1,1,3,1,0.5,6.37209467589855,-1.57239229883999,6.37209763750434,
6.743,0.615,1,1,3,1,0.5,6.47929566912353,-1.52886976022273,6.47929860278964,
6.753,0.625,1,1,3,1,0.5,6.59152764827013,-1.48444857914001,6.59153060987592,
6.763,0.635,1,1,3,1,0.5,6.70862208120525,-1.43922141287476,6.70862501487136,
6.773,0.645,1,1,3,1,0.5,6.82876062579453,-1.3929781364277,6.82876355946064,
6.783,0.655,1,1,3,1,0.5,6.94900771602988,-1.34942220058292,6.94901067763567,
6.793,0.665,1,1,3,1,0.5,7.06939537078142,-1.30520269740373,7.06939833238721,
6.803,0.675,1,1,3,1,0.5,7.19108386896551,-1.26127787865698,7.19108680263162,
6.813,0.685,1,1,3,1,0.5,7.3155175242573,-1.21662079356611,7.31552045792341,
6.823,0.695,1,1,3,1,0.5,7.44032537564635,-1.17277032230049,7.44032833725214,
6.833,0.705,1,1,3,1,0.5,7.56320502609015,-1.13043476361781,7.56320798769593,
6.843,0.715,1,1,3,1,0.5,7.68696312792599,-1.08735689427704,7.6869660615921,
6.853,0.725,1,1,3,1,0.5,7.81340846791863,-1.04496054816991,7.81341142952442,
6.863,0.735,1,1,3,1,0.5,7.93813998810947,-1.00268384441733,7.93814292177558,
6.873,0.745,1,1,3,1,0.5,8.06096244603395,-0.961671588011086,8.06096540763974,
6.888,0.76,1,1,3,1,0.75,8.2458483427763,-0.900494186207652,8.24585130438209,
6.898,0.77,1,1,3,1,0.75,8.36983647197485,-0.859656883403659,8.36983943358064,
6.908,0.78,1,1,3,1,0.75,8.49092977121472,-0.820580623112619,8.49093273282051,
6.918,0.79,1,1,3,1,0.75,8.6122265830636,-0.781065481714904,8.61222954466939,
6.928,0.8,1,1,3,1,0.75,8.73465355485678,-0.74164199642837,8.73465651646256,
6.938,0.81,1,1,3,1,0.75,8.85877389460802,-0.701394714415073,8.85877685621381,
6.948,0.82,1,1,3,1,0.75,8.9814299158752,-0.662691323086619,8.98143287748098,
6.958,0.83,1,1,3,1,0.75,9.10247993655503,-0.623741140589118,9.10248287022114,
6.968,0.84,1,1,3,1,0.75,9.22627285122871,-0.583900469355285,9.2262758128345,
6.978,0.85,1,1,3,1,0.75,9.35284716077149,-0.544443200342357,9.3528500944376,
6.988,0.86,1,1,3,1,0.75,9.47595664300024,-0.505676590837538,9.47595957666636,
6.998,0.87,1,1,3,1,0.75,9.59764922037721,-0.467621688731015,9.59765218198299,
7.008,0.88,1,1,3,1,0.75,9.72180359065533,-0.428526452742517,9.72180655226111,
7.018,0.89,1,1,3,1,0.75,9.8454711958766,-0.390269579365849,9.84547415748238,
7.028,0.9,1,1,3,1,0.75,9.96839851140976,-0.352549701929092,9.96840147301555,
7.038,0.91,1,1,3,1,0.75,10.0891228113323,-0.315727544948459,10.0891257449985,
7.048,0.92,1,1,3,1,0.75,10.2121630311012,-0.278437626548111,10.2121659368277,
7.058,0.93,1,1,3,1,0.75,10.3354037180543,-0.241224272176623,10.3354066796601,
7.068,0.94,1,1,3,1,0.75,10.4585513658822,-0.204339632764459,10.4585543274879,
7.078,0.95,1,1,3,1,0.75,10.5844469927251,-0.16715104226023,10.5844499543309,
7.088,0.96,1,1,3,1,0.75,10.7109596952796,-0.131578887812793,10.710962601006,
7.098,0.97,1,1,3,1,0.75,10.836783349514,-0.0974195962771773,10.8367863111198,
7.108,0.98,1,1,3,1,0.75,10.9634812921286,-0.0655713444575667,10.9634842537344,
7.118,0.99,1,1,3,1,0.75,11.0965316835791,-0.0362778548151255,11.0965346172452,
7.128,1,1,1,3,1,1,11.2424435745925,-0.0142056727781892,11.2424465082586,
7.138,0.00999999999999979,2,2,3,1,1,11.396816438064,-0.00574277713894844,11.3968193717301,
7.148,0.0200000000000005,2,2,3,1,1,11.509013492614,-0.00677748583257198,11.5090163983405,
7.154,0.0259999999999998,2,2,3,1,1,11.5251355525106,-0.00617029145359993,11.5251384861767,
7.156,0.0280000000000005,2,2,3,1,1,11.5231582894921,-0.00500427093356848,11.5231612510979,
7.166,0.0380000000000003,2,2,3,1,1,11.4640014991164,-0.00922085251659155,11.4640044607222,
7.176,0.048,2,2,3,1,1,11.3261788152158,-0.0228291051462293,11.3261817768216,
7.186,0.0579999999999998,2,2,3,1,1,11.1850599199533,-0.0546408351510763,11.1850628815591,
7.196,0.0679999999999996,2,2,3,1,1,11.0789606720209,-0.0882020127028227,11.0789636336267,
7.206,0.0780000000000003,2,2,3,1,1,10.986605733633,-0.119585576467216,10.9866086952388,
7.216,0.0880000000000001,2,2,3,1,1,10.8965911343694,-0.151441902853549,10.8965940959752,
7.226,0.0979999999999999,2,2,3,1,1,10.80192245543,-0.18489530775696,10.8019253611565,
7.236,0.108,2,2,3,1,1,10.7025817595422,-0.221392493695021,10.702584721148,
7.246,0.118,2,2,3,1,1,10.5972471646965,-0.259932223707438,10.5972501263022,
7.256,0.128,2,2,3,1,1,10.4847345873713,-0.300461803562939,10.4847375489771,
7.266,0.138,2,2,3,1,1,10.3750404249877,-0.339891402982175,10.3750433586538,
7.276,0.148,2,2,3,1,1,10.2621616702527,-0.380642814561725,10.2621646039188,
7.286,0.158,2,2,3,1,1,10.1468057837337,-0.421615513041615,10.1468087173998,
7.296,0.168,2,2,3,1,1,10.0288962107152,-0.463449480012059,10.0288991443813,
7.306,0.178,2,2,3,1,1,9.91258699446917,-0.504392157308757,9.91258995607495,
7.316,0.188,2,2,3,1,1,9.79692226275802,-0.544732273556292,9.7969252243638,
7.326,0.198,2,2,3,1,1,9.67847404070199,-0.585970859974623,9.6784769743681,
7.336,0.208,2,2,3,1,1,9.55920157022774,-0.627224063500762,9.55920450389385,
7.346,0.218,2,2,3,1,1,9.44196500815451,-0.66708174534142,9.44196794182062,
7.356,0.228,2,2,3,1,1,9.32301945984364,-0.708221979439259,9.32302242144942,
7.366,0.238,2,2,3,1,1,9.2053962405771,-0.7478853687644,9.20539917424321,
7.376,0.248,2,2,3,1,1,9.086162019521,-0.78840502537787,9.08616498112679,
7.388,0.26,2,2,3,1,1.25,8.9419393055141,-0.836751246824861,8.94194226711988,
7.398,0.27,2,2,3,1,1.25,8.82400372065604,-0.87647957727313,8.82400665432215,
7.408,0.28,2,2,3,1,1.25,8.70503825135529,-0.915511585772038,8.7050411850214,
7.418,0.29,2,2,3,1,1.25,8.58546746894717,-0.955725908279419,8.58547043055296,
7.428,0.3,2,2,3,1,1.25,8.46497685648501,-0.995365767739713,8.46497979015112,
7.438,0.31,2,2,3,1,1.25,8.34458998404443,-1.03497112169862,8.34459291771054,
7.448,0.32,2,2,3,1,1.25,8.22550725191832,-1.07402457389981,8.2255102135241,
7.458,0.33,2,2,3,1,1.25,8.10461453162134,-1.11389398574829,8.10461746528745,
7.468,0.34,2,2,3,1,1.25,7.9828221257776,-1.15342453122139,7.98282505944371,
7.478,0.35,2,2,3,1,1.25,7.86241315305233,-1.19241117034107,7.86241611465812,
7.488,0.36,2,2,3,1,1.25,7.74113307707012,-1.23199493158609,7.74113601073623,
7.498,0.37,2,2,3,1,1.25,7.6179959345609,-1.2723764590919,7.61799886822701,
7.508,0.38,2,2,3,1,1.25,7.49418103136122,-1.31221247836947,7.49418396502733,
7.518,0.39,2,2,3,1,1.25,7.37252765335143,-1.35095931123942,7.37253058701754,
7.528,0.4,2,2,3,1,1.25,7.25194204598665,-1.39011133927852,7.25194500759244,
7.538,0.41,2,2,3,1,1.25,7.12934391573071,-1.42914421856403,7.1293468773365,
7.548,0.42,2,2,3,1,1.25,7.00792104005814,-1.46781666204333,7.00792400166392,
7.558,0.43,2,2,3,1,1.25,6.88880399800837,-1.50512682739645,6.88880693167448,
7.568,0.44,2,2,3,1,1.25,6.77074450068176,-1.54224210418761,6.77074743434787,
7.578,0.45,2,2,3,1,1.25,6.65057245641947,-1.58045973163098,6.65057541802525,
7.588,0.46,2,2,3,1,1.25,6.5272803325206,-1.6202878812328,6.52728326618671,
7.598,0.47,2,2,3,1,1.25,6.40374186448753,-1.65915299206972,6.40374479815364,
7.608,0.48,2,2,3,1,1.25,6.28189469687641,-1.69730902183801,6.28189763054252,
7.618,0.49,2,2,3,1,1.25,6.15994543768466,-1.73533897846937,6.15994837135077,
7.628,0.5,2,2,3,1,1.5,6.03656815364957,-1.77479690406471,6.03657111525536,
7.638,0.51,2,2,3,1,1.5,5.91764300130308,-1.80728661827743,5.91764593496919,
7.647,0.519,2,2,3,1,1.5,5.85787877440452,-1.81756270118058,5.85788173601031,
7.654,0.526,2,2,3,1,1.5,5.84716558456421,-1.81172290816903,5.84716854617,
7.664,0.536,2,2,3,1,1.5,5.85402142256498,-1.79573766421527,5.85402438417077,
7.674,0.546,2,2,3,1,1.5,5.88784938678145,-1.77046446595341,5.88785234838724,
7.684,0.556,2,2,3,1,1.5,5.94460115768015,-1.73775526694953,5.94460409134626,
7.694,0.566,2,2,3,1,1.5,6.0166000854224,-1.70171347912401,6.01660301908851,
7.704,0.576,2,2,3,1,1.5,6.0993143543601,-1.66310891043395,6.09931731596589,
7.714,0.586,2,2,3,1,1.5,6.1892663128674,-1.62222963292152,6.18926927447319,
7.724,0.596,2,2,3,1,1.5,6.28932469524443,-1.58026870340109,6.28932762891054,
7.734,0.606,2,2,3,1,1.5,6.39454591087997,-1.53615975752473,6.39454884454608,
7.744,0.616,2,2,3,1,1.5,6.49906178936362,-1.4948503067717,6.49906475096941,
7.754,0.626,2,2,3,1,1.5,6.61223458126187,-1.45001503173262,6.61223754286766,
7.764,0.636,2,2,3,1,1.5,6.72689113765955,-1.40623595099896,6.72689409926534,
7.774,0.646,2,2,3,1,1.5,6.84903999790549,-1.35995706543326,6.84904295951128,
7.784,0.656,2,2,3,1,1.5,6.96701682172716,-1.31615462712944,6.96701975539327,
7.794,0.666,2,2,3,1,1.5,7.08644955419004,-1.27275834791362,7.08645248785615,
7.804,0.676,2,2,3,1,1.5,7.20818334259093,-1.2290636729449,7.20818627625704,
7.814,0.686,2,2,3,1,1.5,7.33243030495942,-1.18504818528891,7.33243323862553,
7.824,0.696,2,2,3,1,1.5,7.45618564076722,-1.14176655188203,7.45618857443333,
7.834,0.706,2,2,3,1,1.5,7.57876968942583,-1.09899872448295,7.57877262309194,
7.844,0.716,2,2,3,1,1.5,7.70240220241249,-1.05670045595616,7.7024051360786,
7.854,0.726,2,2,3,1,1.5,7.82863377593458,-1.01379348896444,7.82863670960069,
7.864,0.736,2,2,3,1,1.5,7.95352111570537,-0.971998544409871,7.95352404937148,
7.874,0.746,2,2,3,1,1.5,8.07599832303822,-0.931054465472698,8.07600125670433,
7.888,0.76,2,2,3,1,1.75,8.24788665398955,-0.87422308512032,8.24788961559534,
7.898,0.77,2,2,3,1,1.75,8.37136683985591,-0.834070229902864,8.37136980146169,
7.908,0.78,2,2,3,1,1.75,8.49210608750582,-0.794546147808433,8.4921090491116,
7.918,0.79,2,2,3,1,1.75,8.61137668602169,-0.756090595386922,8.61137961968779,
7.928,0.8,2,2,3,1,1.75,8.73666884377599,-0.715294205583632,8.73667180538177,
7.938,0.81,2,2,3,1,1.75,8.86058181524277,-0.676043839193881,8.86058477684855,
7.948,0.82,2,2,3,1,1.75,8.98314415477216,-0.636921860277653,8.98314708843827,
7.958,0.83,2,2,3,1,1.75,9.10504303872585,-0.598162729293108,9.10504600033164,
7.968,0.84,2,2,3,1,1.75,9.22945842146873,-0.55868677329272,9.22946138307452,
7.978,0.85,2,2,3,1,1.75,9.35418060980737,-0.519620166160166,9.35418354347348,
7.988,0.86,2,2,3,1,1.75,9.47766004130244,-0.480917654931545,9.47766300290823,
7.998,0.87,2,2,3,1,1.75,9.59940670989454,-0.443079336546361,9.59940964356065,
8.008,0.880000000000001,2,2,3,1,1.75,9.72308915108442,-0.40496185887605,9.72309211269021,
8.018,0.890000000000001,2,2,3,1,1.75,9.84597318805754,-0.366725926287472,9.84597612172365,
8.028,0.9,2,2,3,1,1.75,9.96878933161497,-0.329470951110125,9.96879229322076,
8.038,0.91,2,2,3,1,1.75,10.0902664940804,-0.292414645664394,10.0902694277465,
8.048,0.92,2,2,3,1,1.75,10.2136027347296,-0.255594933405519,10.2136056683958,
8.058,0.93,2,2,3,1,1.75,10.3382850531489,-0.2177330898121,10.338287986815,
8.068,0.94,2,2,3,1,1.75,10.4652278311551,-0.180678041651845,10.4652307927608,
8.078,0.949999999999999,2,2,3,1,1.75,10.5905234534293,-0.144715760834515,10.5905263870955,
8.088,0.960000000000001,2,2,3,1,1.75,10.7154720649123,-0.110098128207028,10.7154750265181,
8.098,0.970000000000001,2,2,3,1,1.75,10.8430637419224,-0.0770674319937825,10.8430667035282,
8.108,0.98,2,2,3,1,1.75,10.9735779929906,-0.0469364784657955,10.9735809266567,
8.118,0.99,2,2,3,1,1.75,11.1126232054085,-0.0210810452699661,11.1126261390746,
8.128,1,2,2,3,1,2,11.26913507469,-0.00551368575543165,11.2691380083561,
8.142,0.0139999999999993,3,3,3,1,2,11.5054364316165,-0.00547470524907112,11.5054393932223,
8.152,0.0240000000000009,3,3,3,1,2,11.5846886392683,-0.00692186877131462,11.5846915729344,
8.153,0.0250000000000004,3,3,3,1,2,11.5857113432139,-0.00668272376060486,11.58571427688,
8.163,0.0350000000000001,3,3,3,1,2,11.5443547535688,-0.00646570231765509,11.5443576872349,
8.173,0.0449999999999999,3,3,3,1,2,11.400427557528,-0.00932482071220875,11.4004305191338,
8.183,0.0549999999999997,3,3,3,1,2,11.2150517944247,-0.0323838926851749,11.2150547280908,
8.193,0.0649999999999995,3,3,3,1,2,11.0759796202183,-0.0699890125542879,11.0759825818241,
8.203,0.0749999999999993,3,3,3,1,2,10.9823536500335,-0.100534921512008,10.9823566116393,
8.213,0.0850000000000009,3,3,3,1,2,10.8998304326087,-0.129409809596837,10.8998333662748,
8.223,0.0950000000000006,3,3,3,1,2,10.8110851049423,-0.16014767345041,10.8110880665481,
8.233,0.105,3,3,3,1,2,10.7152812927961,-0.195294385775924,10.7152842544019,
8.243,0.115,3,3,3,1,2,10.6149293482304,-0.231720735318959,10.6149322539568,
8.253,0.125,3,3,3,1,2,10.5074512492865,-0.270433356054127,10.5074541829526,
8.263,0.135,3,3,3,1,2,10.3962347377092,-0.310591803863645,10.3962376713753,
8.273,0.145,3,3,3,1,2,10.2864903956652,-0.350004560314119,10.286493357271,
8.283,0.154999999999999,3,3,3,1,2,10.1737491600215,-0.390452444553375,10.1760700531304,
8.293,0.165000000000001,3,3,3,1,2,10.0559284351766,-0.431964001618326,10.0559313967824,
8.303,0.175000000000001,3,3,3,1,2,9.93959384970367,-0.473311152309179,9.93959678336978,
8.313,0.185,3,3,3,1,2,9.82414157129824,-0.51315788179636,9.82414450496435,
8.323,0.195,3,3,3,1,2,9.70786560326815,-0.554032525978982,9.70786856487393,
8.333,0.205,3,3,3,1,2,9.58908529020846,-0.595159409567714,9.58908822387457,
8.343,0.215,3,3,3,1,2,9.46952518075705,-0.636317091993988,9.46952814236283,
8.353,0.225,3,3,3,1,2,9.35123627074063,-0.676723876968026,9.35123920440674,
8.363,0.234999999999999,3,3,3,1,2,9.23404742963612,-0.716374679468572,9.23405036330223,
8.373,0.244999999999999,3,3,3,1,2,9.11441274918616,-0.756947081536055,9.11441568285227,
8.388,0.26,3,3,3,1,2.25,8.93447530455887,-0.817791726440191,8.93447823822498,
8.398,0.27,3,3,3,1,2.25,8.81635299883783,-0.8571439050138,8.81635593250394,
8.408,0.279999999999999,3,3,3,1,2.25,8.69749023579061,-0.896946405991912,8.69749316945672,
8.418,0.290000000000001,3,3,3,1,2.25,8.57623795978725,-0.937279229983687,8.57624089345336,
8.428,0.300000000000001,3,3,3,1,2.25,8.45483117736876,-0.977951399981976,8.45483411103487,
8.438,0.310000000000001,3,3,3,1,2.25,8.33482928574085,-1.01754322182387,8.33483224734664,
8.448,0.32,3,3,3,1,2.25,8.21497237309814,-1.05714652687311,8.21497533470392,
8.458,0.33,3,3,3,1,2.25,8.09345573186874,-1.09724152367562,8.09345869347453,
8.468,0.34,3,3,3,1,2.25,7.97391311265528,-1.13631469197571,7.97391604632139,
8.478,0.35,3,3,3,1,2.25,7.85100261680782,-1.17640971206129,7.85100555047393,
8.488,0.359999999999999,3,3,3,1,2.25,7.72847374901176,-1.21575942263007,7.72847671061754,
8.498,0.369999999999999,3,3,3,1,2.25,7.60440370067954,-1.25705507583916,7.60440666228533,
8.508,0.380000000000001,3,3,3,1,2.25,7.4800502602011,-1.29711461253464,7.48005319386721,
8.518,0.390000000000001,3,3,3,1,2.25,7.35838386230171,-1.33649606257677,7.35838679596782,
8.528,0.4,3,3,3,1,2.25,7.23805809393525,-1.37534293811768,7.23806105554104,
8.538,0.41,3,3,3,1,2.25,7.11573706939816,-1.4145407313481,7.11574003100395,
8.548,0.42,3,3,3,1,2.25,6.99431212618947,-1.45348642021418,6.99431508779526,
8.558,0.43,3,3,3,1,2.25,6.8741081468761,-1.49201186839491,6.87411110848188,
8.568,0.44,3,3,3,1,2.25,6.75529324449599,-1.52932133991271,6.7552961781621,
8.578,0.449999999999999,3,3,3,1,2.25,6.63407572545111,-1.56833920627832,6.63407865911722,
8.588,0.460000000000001,3,3,3,1,2.25,6.51001730002463,-1.60873897373676,6.51002023369074,
8.598,0.470000000000001,3,3,3,1,2.25,6.38575027696788,-1.64802303072065,6.38575321063399,
