"Total Time (s)","Cycle Elapsed Time (s)","Total Cycles","Elapsed Cycles","Step","Loop 1","Total Cycle Count(Linear Waveform)","Position(Linear:Position) (mm)","Force(Linear:Load) (kN)","Displacement(Linear:Digital Position) (mm)",
6.113,0,1,1,3,1,0,11.4009593054652,-0.0199998961761594,11.4010801166296,
6.123,0.00999999999999979,1,1,3,1,0,11.4009268395603,-0.019954014569521,11.401047706604,
6.134,0.0209999999999999,1,1,3,1,0,11.4004108216614,-0.0205659680068493,11.4005316607654,
6.144,0.0309999999999997,1,1,3,1,0,11.3926376402378,-0.0225326605141163,11.3927585072815,
6.154,0.0409999999999995,1,1,3,1,0,11.3682125229388,-0.0283928494900465,11.3689979352057,
6.164,0.0509999999999993,1,1,3,1,0,11.3268874492496,-0.0374985625967383,11.3279841095209,
6.174,0.0609999999999999,1,1,3,1,0,11.2735141161829,-0.0498857861384749,11.2736350111663,
6.184,0.0709999999999997,1,1,3,1,0,11.2149904947728,-0.0641507795080543,11.2151113338768,
6.194,0.0809999999999995,1,1,3,1,0,11.1509216576815,-0.0806226162239909,11.1510425247252,
6.204,0.0909999999999993,1,1,3,1,0,11.0750809963793,-0.100442906841636,11.0752018354833,
6.214,0.101,1,1,3,1,0,10.9921093471348,-0.122344782575965,10.9922302141786,
6.224,0.111,1,1,3,1,0,10.8927963115275,-0.148694473318756,10.8929171785712,
6.234,0.121,1,1,3,1,0,10.7856766786426,-0.176590061746538,10.7857975177467,
6.244,0.130999999999999,1,1,3,1,0,10.6696128845215,-0.207087327726185,10.6697337515652,
6.254,0.141,1,1,3,1,0,10.539099862799,-0.241731125861406,10.5392207019031,
6.264,0.151,1,1,3,1,0,10.3914184123278,-0.280002569779754,10.3945947065949,
6.274,0.161,1,1,3,1,0,10.2352605387568,-0.319964285008609,10.2353814058006,
6.284,0.170999999999999,1,1,3,1,0,10.0709016714245,-0.36153725348413,10.0710225105286,
6.294,0.181,1,1,3,1,0,9.89264085888863,-0.40562080219388,9.89276172593236,
6.304,0.191,1,1,3,1,0,9.70489544793963,-0.451525645330548,9.70887226983905,
6.313,0.199999999999999,1,1,3,1,0,9.52613580040634,-0.494608511216939,9.52625663951039,
6.323,0.21,1,1,3,1,0,9.32522208429873,-0.539576364681125,9.32534292340278,
6.333,0.22,1,1,3,1,0,9.15513533167541,-0.572028714232147,9.15525617077946,
6.343,0.23,1,1,3,1,0,9.03779315762222,-0.591350896283984,9.03791399672627,
6.353,0.239999999999999,1,1,3,1,0,8.93780032172799,-0.608118488453329,8.93792118877172,
6.363,0.25,1,1,3,1,0.25,8.82844367064535,-0.62867468688637,8.8309159129858,
6.373,0.26,1,1,3,1,0.25,8.70508125051856,-0.653084968216717,8.70772501453757,
6.383,0.27,1,1,3,1,0.25,8.58173559419811,-0.678208093158901,8.58185643330216,
6.393,0.279999999999999,1,1,3,1,0.25,8.45690899528563,-0.70233401376754,8.45702983438968,
6.403,0.29,1,1,3,1,0.25,8.33237788639963,-0.726047353819013,8.33249872550368,
6.413,0.3,1,1,3,1,0.25,8.21268009021878,-0.748515143059194,8.21280095726251,
6.423,0.31,1,1,3,1,0.25,8.09298218227923,-0.771181536838412,8.09310302138329,
6.433,0.319999999999999,1,1,3,1,0.25,7.97264805994928,-0.793645922094584,7.97276889905334,
6.443,0.33,1,1,3,1,0.25,7.84680624492466,-0.817403756082058,7.84692708402872,
6.453,0.34,1,1,3,1,0.25,7.72412798367441,-0.839711748994887,7.72424882277846,
6.463,0.35,1,1,3,1,0.25,7.60124618187547,-0.862569687888026,7.6013670489192,
6.473,0.359999999999999,1,1,3,1,0.25,7.47756217606366,-0.884728715755045,7.47768301516771,
6.483,0.37,1,1,3,1,0.25,7.35398400574922,-0.906893741339445,7.35656507313252,
6.493,0.38,1,1,3,1,0.25,7.23150459118187,-0.928622675128281,7.23162543028593,
6.503,0.39,1,1,3,1,0.25,7.10886022076011,-0.950437942519784,7.11145933717489,
6.513,0.399999999999999,1,1,3,1,0.25,6.98456511832774,-0.972538175992668,6.98468595743179,
6.523,0.41,1,1,3,1,0.25,6.85989735648036,-0.994146312586963,6.86001822352409,
6.533,0.42,1,1,3,1,0.25,6.73704480752349,-1.01476676762104,6.73958703875542,
6.543,0.43,1,1,3,1,0.25,6.61602733656764,-1.0357843991369,6.61614820361137,
6.553,0.44,1,1,3,1,0.25,6.49205317720771,-1.05671671684831,6.49217404425144,
6.563,0.449999999999999,1,1,3,1,0.25,6.36855214834213,-1.07750560157001,6.36867301538587,
6.573,0.46,1,1,3,1,0.25,6.24594340100884,-1.09755695797503,6.24606426805258,
6.583,0.47,1,1,3,1,0.25,6.12455751746893,-1.11797155812383,6.12467838451266,
6.593,0.48,1,1,3,1,0.25,6.00191404111683,-1.13788187038153,6.00203488022089,
6.603,0.489999999999999,1,1,3,1,0.25,5.87785539217293,-1.15838478319347,5.87797623127699,
6.613,0.5,1,1,3,1,0.5,5.75462006963789,-1.17817682679743,5.75474090874195,
6.623,0.51,1,1,3,1,0.5,5.63976167701185,-1.19039288256317,5.6398825161159,
6.63,0.516999999999999,1,1,3,1,0.5,5.61069203540683,-1.18323551490903,5.61081290245056,
6.64,0.527,1,1,3,1,0.5,5.65216706134379,-1.15270123817027,5.65058106556535,
6.65,0.537,1,1,3,1,0.5,5.76653178781271,-1.1093619139865,5.7641265168786,
6.66,0.547,1,1,3,1,0.5,5.88578875176609,-1.07000107411295,5.88590959087014,
6.67,0.557,1,1,3,1,0.5,5.98092039115727,-1.04143742006272,5.98104123026133,
6.68,0.566999999999999,1,1,3,1,0.5,6.06275852769613,-1.01711320690811,6.06287939473987,
6.69,0.577,1,1,3,1,0.5,6.15474935621023,-0.990608166903257,6.15487022325397,
6.7,0.587,1,1,3,1,0.5,6.25366173684597,-0.963181518018246,6.25176670029759,
6.71,0.597,1,1,3,1,0.5,6.35526672005653,-0.936248959042132,6.35538758710027,
6.72,0.606999999999999,1,1,3,1,0.5,6.4568804204464,-0.910141803324223,6.45496677607298,
6.73,0.617,1,1,3,1,0.5,6.56011691316962,-0.884017194621265,6.55816499143839,
6.74,0.627,1,1,3,1,0.5,6.6652207262814,-0.858126617968082,6.66320281103253,
6.75,0.637,1,1,3,1,0.5,6.77310179919004,-0.832258621230721,6.77322266623378,
6.76,0.646999999999999,1,1,3,1,0.5,6.88067109324038,-0.806726752780378,6.87863985076547,
6.77,0.657,1,1,3,1,0.5,6.98900495655835,-0.781360133551061,6.98912585154176,
6.78,0.667,1,1,3,1,0.5,7.10014197975397,-0.755881210789084,7.09800828248262,
6.79,0.677,1,1,3,1,0.5,7.21022643148899,-0.730741270817816,7.21034729853272,
6.8,0.686999999999999,1,1,3,1,0.5,7.32360407710075,-0.705168242566288,7.32372494414449,
6.81,0.697,1,1,3,1,0.5,7.43638068437576,-0.680276858620346,7.43422262370586,
6.82,0.707,1,1,3,1,0.5,7.5499018561095,-0.655163656920195,7.55002269521356,
6.83,0.717,1,1,3,1,0.5,7.66557522118092,-0.630032662302256,7.6633758097887,
6.84,0.726999999999999,1,1,3,1,0.5,7.78194721788168,-0.60491010081023,7.78206808492541,
6.85,0.737,1,1,3,1,0.5,7.89673830382526,-0.580373890697956,7.89685914292931,
6.86,0.747,1,1,3,1,0.5,8.01165324635804,-0.556216603145003,8.01177408546209,
6.873,0.76,1,1,3,1,0.75,8.16076763905585,-0.524604562669992,8.1608884781599,
6.883,0.77,1,1,3,1,0.75,8.27926380559802,-0.500048846006393,8.27938467264175,
6.893,0.779999999999999,1,1,3,1,0.75,8.39209796860814,-0.476666712202132,8.39221883565187,
6.903,0.79,1,1,3,1,0.75,8.50805215537548,-0.45283361338079,8.50817302241921,
6.913,0.8,1,1,3,1,0.75,8.62619133666158,-0.428691846318543,8.62631220370531,
6.923,0.81,1,1,3,1,0.75,8.74666448682547,-0.404308848083019,8.7467853538692,
6.933,0.819999999999999,1,1,3,1,0.75,8.86324667371809,-0.381112662144005,8.86104639619589,
6.943,0.83,1,1,3,1,0.75,8.97654972039163,-0.358332162722945,8.97667055949569,
6.953,0.84,1,1,3,1,0.75,9.09610183909535,-0.334768169559538,9.0938550978899,
6.963,0.85,1,1,3,1,0.75,9.21340447850525,-0.311254216358066,9.21352531760931,
6.973,0.859999999999999,1,1,3,1,0.75,9.33354659937322,-0.287642464973032,9.33366749435663,
6.983,0.87,1,1,3,1,0.75,9.4513173121959,-0.264681912958622,9.45143815129995,
6.993,0.88,1,1,3,1,0.75,9.57056620158255,-0.241359560750425,9.57068704068661,
7.003,0.89,1,1,3,1,0.75,9.68956422060728,-0.218274630606174,9.68968508765101,
7.013,0.899999999999999,1,1,3,1,0.75,9.81497559696436,-0.194044220261276,9.81509646400809,
7.023,0.91,1,1,3,1,0.75,9.93881849572062,-0.170668587088585,9.93893936276436,
7.033,0.92,1,1,3,1,0.75,10.057657007128,-0.148843536153436,10.0577778741717,
7.043,0.93,1,1,3,1,0.75,10.1787305250764,-0.126658789813519,10.1788513921201,
7.053,0.94,1,1,3,1,0.75,10.3031127713621,-0.10482715908438,10.300803501159,
7.063,0.949999999999999,1,1,3,1,0.75,10.4252559598535,-0.0828187633305788,10.4253767989576,
7.073,0.96,1,1,3,1,0.75,10.5487671867013,-0.0614357413724065,10.548888053745,
7.083,0.97,1,1,3,1,0.75,10.6751325633377,-0.0406195456162095,10.6752534024417,
7.093,0.98,1,1,3,1,0.75,10.8004225138575,-0.0220250990241766,10.8005433529615,
7.103,0.989999999999999,1,1,3,1,0.75,10.9271719492972,-0.00817956402897835,10.9246805123985,
7.113,1,1,1,3,1,1,11.0663610231131,-0.00213015358895063,11.0664818622172,
7.126,0.0129999999999999,2,2,3,1,1,11.2377312127501,-0.00786932185292244,11.2378520518541,
7.13,0.0169999999999995,2,2,3,1,1,11.2518659234047,-0.00876902602612972,11.2519622594118,
7.14,0.0270000000000001,2,2,3,1,1,11.1723096761853,-0.0107322074472904,11.1724305152893,
7.15,0.0369999999999999,2,2,3,1,1,10.9588391706347,-0.0311132660135627,10.9633140452206,
7.16,0.0469999999999997,2,2,3,1,1,10.8014537394047,-0.0699429074302316,10.8015746064484,
7.17,0.0569999999999995,2,2,3,1,1,10.7455865107477,-0.0858872337266803,10.7457073777914,
7.18,0.0669999999999993,2,2,3,1,1,10.70233438164,-0.0997600937262177,10.7024552486837,
7.19,0.077,2,2,3,1,1,10.618219608441,-0.123885166831315,10.6183404475451,
7.2,0.0869999999999997,2,2,3,1,1,10.5072310846299,-0.154119012877345,10.5073519237339,
7.21,0.0969999999999995,2,2,3,1,1,10.40058366023,-0.182212623767555,10.4007044993341,
7.22,0.106999999999999,2,2,3,1,1,10.298893628642,-0.207903585396707,10.299014467746,
7.23,0.117,2,2,3,1,1,10.2005748823285,-0.231966893188655,10.2026791870594,
7.24,0.127,2,2,3,1,1,10.1020083669573,-0.257600778713822,10.1021292060614,
7.25,0.137,2,2,3,1,1,9.99229526147246,-0.284518683329225,9.9924161285162,
7.26,0.146999999999999,2,2,3,1,1,9.88340050913394,-0.311054047197104,9.88352134823799,
7.27,0.157,2,2,3,1,1,9.77779545821249,-0.335616148076952,9.78001898154616,
7.28,0.167,2,2,3,1,1,9.67174736782908,-0.361147043295205,9.67186823487282,
7.29,0.177,2,2,3,1,1,9.56308272667229,-0.386462202295661,9.56539750099182,
7.3,0.186999999999999,2,2,3,1,1,9.45332690142095,-0.411629970185459,9.45344774052501,
7.31,0.197,2,2,3,1,1,9.3435418792069,-0.436706645414233,9.34366274625063,
7.32,0.207,2,2,3,1,1,9.23325480893254,-0.460819089785218,9.23560213297606,
7.33,0.217,2,2,3,1,1,9.12302448414266,-0.48607352655381,9.12314532324672,
7.34,0.226999999999999,2,2,3,1,1,9.01144836097956,-0.510208630003035,9.0138453617692,
7.35,0.237,2,2,3,1,1,8.89745928347111,-0.535408523865044,8.89758015051484,
7.36,0.247,2,2,3,1,1,8.7838330026716,-0.560301109217107,8.78623271360993,
7.373,0.26,2,2,3,1,1.25,8.635572809726,-0.591769465245306,8.638004232198,
7.383,0.27,2,2,3,1,1.25,8.51981140673161,-0.616571600548923,8.51993227377534,
7.393,0.279999999999999,2,2,3,1,1.25,8.40228259563446,-0.641189045272768,8.40240346267819,
7.403,0.29,2,2,3,1,1.25,8.2887932471931,-0.664420882239938,8.28891411423683,
7.413,0.3,2,2,3,1,1.25,8.17141659557819,-0.68830490577966,8.17385433241725,
7.423,0.31,2,2,3,1,1.25,8.05457931943238,-0.712506105192006,8.05470021441579,
7.433,0.319999999999999,2,2,3,1,1.25,7.93643762357533,-0.736797284334898,7.93655846267939,
7.443,0.33,2,2,3,1,1.25,7.81670487485826,-0.76012350153178,7.81923718750477,
7.453,0.34,2,2,3,1,1.25,7.70041200332344,-0.783653939142823,7.70053284242749,
7.463,0.35,2,2,3,1,1.25,7.58013448677957,-0.807676482945681,7.58025532588363,
7.473,0.359999999999999,2,2,3,1,1.25,7.45687513612211,-0.831771702505648,7.45699597522616,
7.483,0.37,2,2,3,1,1.25,7.3371569160372,-0.854887194000185,7.33727775514126,
7.493,0.38,2,2,3,1,1.25,7.21903374418616,-0.877212737686932,7.2191546112299,
7.503,0.39,2,2,3,1,1.25,7.09862273186445,-0.900640543550253,7.09874359890819,
7.513,0.399999999999999,2,2,3,1,1.25,6.97752739302814,-0.923400507308543,6.9776482321322,
7.523,0.41,2,2,3,1,1.25,6.85787784866989,-0.945595083758235,6.85799868777394,
7.533,0.42,2,2,3,1,1.25,6.73850957304239,-0.967707191593945,6.74101196229458,
7.543,0.43,2,2,3,1,1.25,6.621208274737,-0.98952614236623,6.62132911384106,
7.553,0.44,2,2,3,1,1.25,6.4970729034394,-1.01232131011784,6.49719374254346,
7.563,0.449999999999999,2,2,3,1,1.25,6.37596759013832,-1.03459415957332,6.37850487604737,
7.573,0.46,2,2,3,1,1.25,6.25733591616154,-1.05558952782303,6.25745678320527,
7.583,0.47,2,2,3,1,1.25,6.13392320461571,-1.07786746695638,6.13404404371977,
7.593,0.48,2,2,3,1,1.25,6.01188688538969,-1.09921470284462,6.01447071880102,
7.603,0.489999999999999,2,2,3,1,1.25,5.89053341187537,-1.1208019265905,5.89308578521013,
7.613,0.5,2,2,3,1,1.5,5.76969212852418,-1.14139879122376,5.77223220840096,
7.623,0.51,2,2,3,1,1.5,5.65703225322068,-1.15510875359178,5.65884791314602,
7.624,0.511,2,2,3,1,1.5,5.64920551143587,-1.15521767176688,5.65080458298326,
7.63,0.516999999999999,2,2,3,1,1.5,5.6278666947037,-1.14881592802703,5.62798753380775,
7.64,0.527,2,2,3,1,1.5,5.66893282346427,-1.11931276973337,5.66905366256833,
7.65,0.537,2,2,3,1,1.5,5.78608014620841,-1.07607059180737,5.78367434442043,
7.66,0.547,2,2,3,1,1.5,5.90401257388294,-1.03862057905644,5.90203089639544,
7.67,0.557,2,2,3,1,1.5,5.99469680339098,-1.01160639896989,5.99481767043471,
7.68,0.566999999999999,2,2,3,1,1.5,6.07939425855875,-0.98685123026371,6.07951512560248,
7.69,0.577,2,2,3,1,1.5,6.17085236124694,-0.961370901204646,6.170973200351,
7.7,0.587,2,2,3,1,1.5,6.2656940985471,-0.934987203218043,6.26581493765116,
7.71,0.597,2,2,3,1,1.5,6.36593045666814,-0.908897803165019,6.36605132371187,
7.72,0.606999999999999,2,2,3,1,1.5,6.46761663258076,-0.883067646063864,6.46773749962449,
7.73,0.617,2,2,3,1,1.5,6.56967633403838,-0.857071471400559,6.56979717314243,
7.74,0.627,2,2,3,1,1.5,6.67758076451719,-0.831075310707092,6.67770160362124,
7.75,0.637,2,2,3,1,1.5,6.78483163006604,-0.805346481502056,6.78495246917009,
7.76,0.646999999999999,2,2,3,1,1.5,6.89084504730999,-0.780358128249645,6.89096594229341,
7.77,0.657,2,2,3,1,1.5,6.9967270642519,-0.755480895750225,6.99684793129563,
7.78,0.667,2,2,3,1,1.5,7.10931535810232,-0.729808923788369,7.1072281524539,
7.79,0.677,2,2,3,1,1.5,7.22069025970995,-0.705292942002416,7.21856877207756,
7.8,0.686999999999999,2,2,3,1,1.5,7.33306738547981,-0.679367892444134,7.33318822458386,
7.81,0.697,2,2,3,1,1.5,7.4445019941777,-0.654942453838885,7.44238575920463,
7.82,0.707,2,2,3,1,1.5,7.55787614732981,-0.629944480024278,7.55799701437354,
7.83,0.717,2,2,3,1,1.5,7.6726680714637,-0.605062996037304,7.67278891056776,
7.84,0.726999999999999,2,2,3,1,1.5,7.78646939434111,-0.580555060878396,7.78659023344517,
7.85,0.737,2,2,3,1,1.5,7.90374658070505,-0.55544616188854,7.9038674198091,
7.86,0.747,2,2,3,1,1.5,8.01840716041624,-0.532162091694772,8.01623174920678,
7.873,0.76,2,2,3,1,1.75,8.16794637590647,-0.500203398987651,8.1680672429502,
7.883,0.77,2,2,3,1,1.75,8.28425550833344,-0.475937118753791,8.28437637537718,
7.893,0.779999999999999,2,2,3,1,1.75,8.40015163645148,-0.452795578166842,8.39798575267196,
7.903,0.79,2,2,3,1,1.75,8.5132072493434,-0.429100506007671,8.51332811638713,
7.913,0.8,2,2,3,1,1.75,8.63010708242655,-0.405336357653141,8.63022794947028,
7.923,0.81,2,2,3,1,1.75,8.7475514318794,-0.381362321786582,8.74767232686281,
7.933,0.819999999999999,2,2,3,1,1.75,8.8670311588794,-0.358409374020994,8.86482099071145,
7.943,0.83,2,2,3,1,1.75,8.9831209089607,-0.334777948446572,8.98324174806475,
7.953,0.84,2,2,3,1,1.75,9.0976966638118,-0.312238689512014,9.09781750291586,
7.963,0.85,2,2,3,1,1.75,9.21835228800774,-0.288789509795606,9.21608677133918,
7.973,0.859999999999999,2,2,3,1,1.75,9.33704746887088,-0.265626646578312,9.33481100946665,
7.983,0.87,2,2,3,1,1.75,9.4549279846251,-0.242576552554965,9.45504885166883,
7.993,0.88,2,2,3,1,1.75,9.57515632733703,-0.219072997570038,9.57527719438076,
8.003,0.89,2,2,3,1,1.75,9.69904848374426,-0.195376672782004,9.69916932284832,
8.013,0.899999999999999,2,2,3,1,1.75,9.82237773947418,-0.172309298068285,9.82249857857823,
8.023,0.909999999999999,2,2,3,1,1.75,9.94337721727788,-0.149742779321969,9.94349805638194,
8.033,0.919999999999999,2,2,3,1,1.75,10.0624182075262,-0.129233617335558,10.060160793364,
8.043,0.930000000000001,2,2,3,1,1.75,10.183581802994,-0.106522752903402,10.1837026700377,
8.053,0.94,2,2,3,1,1.75,10.3076272644103,-0.0849355524405837,10.307748131454,
8.063,0.95,2,2,3,1,1.75,10.4323232453316,-0.0636568712070584,10.4324440844357,
8.073,0.96,2,2,3,1,1.75,10.5565532203764,-0.0431613018736243,10.5541734024882,
8.083,0.97,2,2,3,1,1.75,10.6830904539675,-0.0240000383928418,10.6832112930715,
8.093,0.98,2,2,3,1,1.75,10.8092532958835,-0.00936339143663645,10.8093741349876,
8.103,0.989999999999999,2,2,3,1,1.75,10.9484744165093,-0.00261213630437851,10.9485953114927,
8.109,0.996,2,2,3,1,1.75,11.0379046015441,-0.00153066124767065,11.0380254685879,
8.113,0.999999999999999,2,2,3,1,2,11.0998626798391,-0.00182189512997866,11.0968678817153,
8.125,0.0120000000000005,3,3,3,1,2,11.2673278804868,-0.00733005348592997,11.2674487195909,
8.13,0.0170000000000012,3,3,3,1,2,11.2893391773105,-0.0085082184523344,11.2894380837679,
8.14,0.027000000000001,3,3,3,1,2,11.206481885165,-0.00924887135624886,11.2066027522087,
8.15,0.0370000000000008,3,3,3,1,2,10.9805850684643,-0.0146044883877039,10.980705935508,
8.16,0.0470000000000006,3,3,3,1,2,10.7845929265022,-0.0529507081955671,10.784713793546,
8.17,0.0570000000000004,3,3,3,1,2,10.7284993305802,-0.0691135879606009,10.728620197624,
8.18,0.0670000000000002,3,3,3,1,2,10.7041564956307,-0.0784473400563002,10.7042773626745,
8.19,0.077,3,3,3,1,2,10.6330828182399,-0.100273718126118,10.6332036852837,
8.2,0.0869999999999997,3,3,3,1,2,10.5160568654537,-0.13209299184382,10.5186369270086,
8.21,0.0970000000000013,3,3,3,1,2,10.3998735453933,-0.16225915402174,10.4021414928138,
8.22,0.107000000000001,3,3,3,1,2,10.3019389417022,-0.187411969527602,10.3020597808063,
8.23,0.117000000000001,3,3,3,1,2,10.2040111273527,-0.211745146661997,10.2041319943964,
8.24,0.127000000000001,3,3,3,1,2,10.1039371266961,-0.237410748377442,10.1040579937398,
8.25,0.137,3,3,3,1,2,9.99895138666034,-0.263609220273793,9.99907225370407,
8.26,0.147,3,3,3,1,2,9.88571975380182,-0.291039803996682,9.88584062084556,
8.27,0.157,3,3,3,1,2,9.77856455370784,-0.316561707295477,9.77868542075157,
8.28,0.167,3,3,3,1,2,9.67295726761222,-0.341528560966253,9.67307813465595,
8.29,0.177000000000001,3,3,3,1,2,9.56361405551434,-0.367068978957832,9.56373492255807,
8.3,0.187000000000001,3,3,3,1,2,9.45328549481928,-0.39231738075614,9.45340633392334,
8.31,0.197000000000001,3,3,3,1,2,9.34367378242314,-0.417614206671715,9.3437946215272,
8.32,0.207000000000001,3,3,3,1,2,9.23467573709786,-0.442078155465424,9.23479657620192,
8.33,0.217000000000001,3,3,3,1,2,9.12162403576076,-0.467401300556958,9.123958311975,
8.34,0.227,3,3,3,1,2,9.00970911607146,-0.49246025737375,9.0098299831152,
8.35,0.237,3,3,3,1,2,8.89570866711438,-0.5170270614326,8.89582956209779,
8.36,0.247,3,3,3,1,2,8.78141610883176,-0.541881360113621,8.78153694793582,
8.373,0.26,3,3,3,1,2.25,8.63500247709453,-0.573222050443292,8.63512331619859,
8.383,0.270000000000001,3,3,3,1,2.25,8.51556220091879,-0.599072938784957,8.51568304002285,
8.393,0.280000000000001,3,3,3,1,2.25,8.39815506711602,-0.623715133406222,8.40062012895942,
8.403,0.290000000000001,3,3,3,1,2.25,8.28139456920326,-0.647942060604692,8.28151540830731,
8.413,0.300000000000001,3,3,3,1,2.25,8.16578462719917,-0.671915770508349,8.16590549424291,
8.423,0.310000000000001,3,3,3,1,2.25,8.04841297678649,-0.695311091840267,8.05090494453907,
8.433,0.32,3,3,3,1,2.25,7.92951405979693,-0.720528750680387,7.92963489890099,
8.443,0.33,3,3,3,1,2.25,7.8117280639708,-0.744077055715024,7.81184893101454,
8.453,0.34,3,3,3,1,2.25,7.69242745824158,-0.76795382425189,7.69254829734564,
8.463,0.350000000000001,3,3,3,1,2.25,7.57241609506309,-0.792146832682192,7.57253693416715,
8.473,0.360000000000001,3,3,3,1,2.25,7.44757614098489,-0.816332590766251,7.45013041421771,
8.483,0.370000000000001,3,3,3,1,2.25,7.3273432161659,-0.84019489120692,7.32746405526996,
8.493,0.380000000000001,3,3,3,1,2.25,7.20860176719725,-0.863084611482918,7.20872260630131,
8.503,0.390000000000001,3,3,3,1,2.25,7.08784053102136,-0.886516538448632,7.08796139806509,
8.513,0.4,3,3,3,1,2.25,6.96649007499218,-0.909581058658659,6.96661094203591,
