"Total Time (s)","Cycle Elapsed Time (s)","Total Cycles","Elapsed Cycles","Step","Loop 1","Total Cycle Count(Linear Waveform)","Position(Linear:Position) (mm)","Force(Linear:Load) (kN)","Displacement(Linear:Digital Position) (mm)",
998.136,0,993,993,3,1,992,11.3210297841579,-0.00275067519396544,11.3184531591833,
998.146,0.0100000000001046,993,993,3,1,992,11.4417243842036,-0.00679981894791126,11.4399427548051,
998.152,0.0160000000000764,993,993,3,1,992,11.4674719702452,-0.00886400695890188,11.4674830064178,
998.162,0.0260000000000673,993,993,3,1,992,11.3878237456083,-0.00944253988564014,11.3878348097205,
998.172,0.0360000000000582,993,993,3,1,992,11.1560030747205,-0.00423049088567495,11.156014110893,
998.179,0.0430000000000064,993,993,3,1,992,10.9646524116397,-0.00159203540533781,10.9646634198725,
998.189,0.0529999999999973,993,993,3,1,992,10.7711643632501,-0.00639759004116058,10.7711753994226,
998.199,0.0630000000001019,993,993,3,1,992,10.7134911697358,-0.0136366859078407,10.7135022059083,
998.209,0.0730000000000928,993,993,3,1,992,10.7005703262985,-0.0189056107774377,10.7005813904107,
998.219,0.0830000000000837,993,993,3,1,992,10.6299130059779,-0.0275968620553613,10.6299240700901,
998.229,0.0930000000000746,993,993,3,1,992,10.4836391285062,-0.0450381357222795,10.483650136739,
998.239,0.103000000000065,993,993,3,1,992,10.3286829963326,-0.0666174199432135,10.3286940604448,
998.249,0.113000000000056,993,993,3,1,992,10.2142614684999,-0.0850066915154457,10.2142724767327,
998.259,0.123000000000047,993,993,3,1,992,10.1231906935573,-0.0999890360981226,10.1232017017901,
998.269,0.133000000000038,993,993,3,1,992,10.0204992201179,-0.11586313135922,10.0227286107838,
998.279,0.143000000000029,993,993,3,1,992,9.90658211521804,-0.134022831916809,9.90659315139055,
998.289,0.15300000000002,993,993,3,1,992,9.78926072828472,-0.152478204108775,9.78927176445723,
998.299,0.163000000000011,993,993,3,1,992,9.67694696970284,-0.169817302376032,9.67695800587535,
998.309,0.173000000000002,993,993,3,1,992,9.56496776081622,-0.187434940598905,9.56497879698873,
998.319,0.183000000000106,993,993,3,1,992,9.44766864180565,-0.205537071451545,9.44767965003848,
998.329,0.193000000000097,993,993,3,1,992,9.33301085606217,-0.222722943872213,9.33302186429501,
998.339,0.203000000000088,993,993,3,1,992,9.22049537301064,-0.240364740602672,9.22050643712282,
998.349,0.213000000000079,993,993,3,1,992,9.10461536608636,-0.257965205237269,9.10462640225887,
998.359,0.22300000000007,993,993,3,1,992,8.98352161981165,-0.27631628792733,8.98353265598416,
998.369,0.233000000000061,993,993,3,1,992,8.86372268199921,-0.294410493224859,8.86373369023204,
998.379,0.243000000000052,993,993,3,1,992,8.74718327075243,-0.311915632337332,8.74719433486462,
998.396,0.260000000000105,993,993,3,1,992.25,8.54788505472243,-0.341516900807619,8.54789609089494,
998.406,0.270000000000096,993,993,3,1,992.25,8.42614562250674,-0.359447100199759,8.42615665867925,
998.416,0.280000000000086,993,993,3,1,992.25,8.30605532974005,-0.37723938934505,8.30606639385223,
998.426,0.290000000000077,993,993,3,1,992.25,8.18772579543292,-0.394551567733288,8.18773683160543,
998.436,0.300000000000068,993,993,3,1,992.25,8.06721028871834,-0.41216847486794,8.06722132489085,
998.446,0.310000000000059,993,993,3,1,992.25,7.94592110440135,-0.429382785223424,7.94593211263418,
998.456,0.32000000000005,993,993,3,1,992.25,7.82367308624089,-0.447505293413997,7.8236841224134,
998.466,0.330000000000041,993,993,3,1,992.25,7.70151036791503,-0.465085040777922,7.70152140408754,
998.476,0.340000000000032,993,993,3,1,992.25,7.57780423387885,-0.483110630884767,7.57781524211168,
998.486,0.350000000000023,993,993,3,1,992.25,7.4536244943738,-0.500420089811087,7.45363550260663,
998.496,0.360000000000014,993,993,3,1,992.25,7.33281081542373,-0.517876171506941,7.33282182365656,
998.506,0.370000000000005,993,993,3,1,992.25,7.21233302727342,-0.534936925396323,7.2123440913856,
998.516,0.380000000000109,993,993,3,1,992.25,7.08869772031903,-0.552457170560956,7.08870872855186,
998.526,0.3900000000001,993,993,3,1,992.25,6.96437266655266,-0.569750810973346,6.96438370272517,
998.536,0.400000000000091,993,993,3,1,992.25,6.84272926300764,-0.586624410934746,6.84274032711983,
998.546,0.410000000000082,993,993,3,1,992.25,6.72349568456411,-0.603213659487665,6.7235067486763,
998.556,0.420000000000073,993,993,3,1,992.25,6.60095617175102,-0.62065068166703,6.60096717998385,
998.566,0.430000000000064,993,993,3,1,992.25,6.4732517581433,-0.638255118392408,6.47326279431582,
998.576,0.440000000000055,993,993,3,1,992.25,6.34942296892405,-0.655227536335588,6.34943403303623,
998.586,0.450000000000045,993,993,3,1,992.25,6.22990256175399,-0.671670101583004,6.22991356998682,
998.596,0.460000000000036,993,993,3,1,992.25,6.10806528478861,-0.688470299355686,6.10807629302144,
998.606,0.470000000000027,993,993,3,1,992.25,5.9831771068275,-0.705163963139057,5.98318811506033,
998.616,0.480000000000018,993,993,3,1,992.25,5.85794714279473,-0.722130271606147,5.85795817896724,
998.626,0.490000000000009,993,993,3,1,992.25,5.73564439080656,-0.738703794777393,5.73565542697906,
998.636,0.5,993,993,3,1,992.5,5.61420100741088,-0.755224716849625,5.61421204358339,
998.646,0.510000000000105,993,993,3,1,992.5,5.49516862258315,-0.76622293330729,5.49517968669534,
998.649,0.513000000000034,993,993,3,1,992.5,5.47462091781199,-0.766277224756777,5.4746319539845,
998.652,0.516000000000076,993,993,3,1,992.5,5.46771269291639,-0.765094575472176,5.46772375702858,
998.662,0.526000000000067,993,993,3,1,992.5,5.52879558876157,-0.749005228281021,5.5288065969944,
998.672,0.536000000000058,993,993,3,1,992.5,5.6941298302263,-0.721316575072706,5.69414086639881,
998.682,0.546000000000049,993,993,3,1,992.5,5.85899605415761,-0.69424809422344,5.85900709033012,
998.692,0.55600000000004,993,993,3,1,992.5,5.96434473060071,-0.676176259294152,5.96435576677322,
998.702,0.566000000000031,993,993,3,1,992.5,6.036376375705,-0.662542833015323,6.03638743981719,
998.712,0.576000000000022,993,993,3,1,992.5,6.12496241927147,-0.647255997173488,6.1249734275043,
998.722,0.586000000000013,993,993,3,1,992.5,6.24022076837718,-0.628620414063334,6.24023180454969,
998.732,0.596000000000004,993,993,3,1,992.5,6.36302051134408,-0.609456743113697,6.36303154751658,
998.742,0.606000000000108,993,993,3,1,992.5,6.47741784341633,-0.591322230175138,6.47742887958884,
998.752,0.616000000000099,993,993,3,1,992.5,6.5832690987736,-0.574227524921298,6.58328013494611,
998.762,0.62600000000009,993,993,3,1,992.5,6.69219357892871,-0.557115315459669,6.6922046430409,
998.772,0.636000000000081,993,993,3,1,992.5,6.81038880720735,-0.539021487347782,6.81039981544018,
998.782,0.646000000000072,993,993,3,1,992.5,6.92749855108559,-0.521262716501951,6.9275095872581,
998.792,0.656000000000063,993,993,3,1,992.5,7.04243207350373,-0.504209171049297,7.04244313761592,
998.802,0.666000000000054,993,993,3,1,992.5,7.15799267403781,-0.486448369920254,7.15800371021032,
998.812,0.676000000000045,993,993,3,1,992.5,7.27733144536614,-0.468650157563388,7.27734245359898,
998.822,0.686000000000035,993,993,3,1,992.5,7.39814518019557,-0.450969929806888,7.3958033323288,
998.832,0.696000000000026,993,993,3,1,992.5,7.51234721392393,-0.433898940682411,7.51235827803612,
998.842,0.706000000000017,993,993,3,1,992.5,7.62958087027073,-0.416224068030715,7.62959187850356,
998.852,0.716000000000008,993,993,3,1,992.5,7.75072812102735,-0.398554713465273,7.75073915719986,
998.862,0.725999999999999,993,993,3,1,992.5,7.87095749750733,-0.381048596464098,7.87096850574017,
998.872,0.736000000000104,993,993,3,1,992.5,7.98901040107012,-0.363565762527287,7.9890214651823,
998.882,0.746000000000095,993,993,3,1,992.5,8.10795463621616,-0.346538214944303,8.107965644449,
998.896,0.760000000000105,993,993,3,1,992.75,8.27610670588911,-0.32189164776355,8.27611774206162,
998.906,0.770000000000096,993,993,3,1,992.75,8.39572124183178,-0.304773608222604,8.39573230594397,
998.916,0.780000000000086,993,993,3,1,992.75,8.51315318606794,-0.287629324011505,8.51316422224045,
998.926,0.790000000000077,993,993,3,1,992.75,8.63186096772551,-0.270208460278809,8.63187197595835,
998.936,0.800000000000068,993,993,3,1,992.75,8.75429674051702,-0.252948133274913,8.75430777668953,
998.946,0.810000000000059,993,993,3,1,992.75,8.87472680769861,-0.235688923858106,8.87473784387112,
998.956,0.82000000000005,993,993,3,1,992.75,8.99421343579888,-0.218384130857885,8.99422444403171,
998.966,0.830000000000041,993,993,3,1,992.75,9.11623380146921,-0.201044986024499,9.11624483764172,
998.976,0.840000000000032,993,993,3,1,992.75,9.24207181669771,-0.182911455631256,9.24208285287023,
998.986,0.850000000000023,993,993,3,1,992.75,9.36713090166449,-0.165265914984047,9.36714196577668,
998.996,0.860000000000014,993,993,3,1,992.75,9.48550058528781,-0.148634621873498,9.48551159352064,
999.006,0.870000000000005,993,993,3,1,992.75,9.60354276001453,-0.131474751979113,9.60355382412672,
999.016,0.880000000000109,993,993,3,1,992.75,9.72812206484377,-0.11435667052865,9.72813310101628,
999.026,0.8900000000001,993,993,3,1,992.75,9.85526413656771,-0.0968552846461535,9.85527517274022,
999.036,0.900000000000091,993,993,3,1,992.75,9.97770658694208,-0.0800505699589849,9.97771762311458,
999.046,0.910000000000082,993,993,3,1,992.75,10.1000646315515,-0.0634091207757592,10.1000756397843,
999.056,0.920000000000073,993,993,3,1,992.75,10.2274493873119,-0.0465855607762933,10.2274604514241,
999.066,0.930000000000064,993,993,3,1,992.75,10.3583941888064,-0.0309948995709419,10.3584052249789,
999.076,0.940000000000055,993,993,3,1,992.75,10.4866573959589,-0.0178019143640995,10.4866684600711,
999.086,0.950000000000045,993,993,3,1,992.75,10.6171469762921,-0.00907211098819971,10.6171580404043,
999.096,0.960000000000036,993,993,3,1,992.75,10.7621305994689,-0.00501928851008415,10.7621416635811,
999.106,0.970000000000027,993,993,3,1,992.75,10.9106212109327,-0.00319095328450203,10.9106322191656,
999.116,0.980000000000018,993,993,3,1,992.75,11.0549872834235,-0.00325961038470268,11.0549983195961,
999.126,0.990000000000009,993,993,3,1,992.75,11.1887240968645,-0.00261667650192976,11.1887351050973,
999.136,1,993,993,3,1,993,11.3208615314215,-0.00262116082012653,11.3182834535837,
999.149,0.0130000000000337,994,994,3,1,993,11.4607022702694,-0.00836702063679695,11.4607132785022,
999.152,0.0160000000000764,994,994,3,1,993,11.4674340281636,-0.00906423665583134,11.4674450643361,
999.167,0.0310000000000628,994,994,3,1,993,11.285944422707,-0.00711869914084673,11.2859554588795,
999.177,0.0410000000000537,994,994,3,1,993,11.017903033644,-0.0017236964777112,11.0179140977561,
999.178,0.04200000000003,994,994,3,1,993,10.9911460150033,-0.001597935333848,10.9911570511758,
999.188,0.0520000000000209,994,994,3,1,993,10.7818171195686,-0.00554392579942942,10.7845143042505,
999.198,0.0620000000000118,994,994,3,1,993,10.7147912029177,-0.0130265764892101,10.7148022390902,
999.208,0.0720000000000027,994,994,3,1,993,10.7023134827614,-0.0182038685306907,10.7023244909942,
999.218,0.0820000000001073,994,994,3,1,993,10.6399869080633,-0.0265134498476982,10.6399979442358,
999.228,0.0920000000000982,994,994,3,1,993,10.4998786747456,-0.0427750498056412,10.4998897388577,
999.238,0.102000000000089,994,994,3,1,993,10.3437117487192,-0.0645748432725668,10.3437228128314,
999.248,0.11200000000008,994,994,3,1,993,10.2247055433691,-0.0831175083294511,10.2247165516019,
999.258,0.122000000000071,994,994,3,1,993,10.1321544125676,-0.0985644804313779,10.1321654766798,
999.268,0.132000000000062,994,994,3,1,993,10.0332721788436,-0.114152296446264,10.0332832150161,
999.278,0.142000000000053,994,994,3,1,993,9.91903885267675,-0.131743741221726,9.91904988884926,
999.288,0.152000000000044,994,994,3,1,993,9.80182503350079,-0.150542920455337,9.8018360696733,
999.298,0.162000000000035,994,994,3,1,993,9.68810864724219,-0.168285551480949,9.6881196834147,
999.308,0.172000000000025,994,994,3,1,993,9.57483851350844,-0.1860207086429,9.57484954968095,
999.318,0.182000000000016,994,994,3,1,993,9.45915422402322,-0.203566029667854,9.45916526019573,
999.328,0.192000000000007,994,994,3,1,993,9.34504807926714,-0.220928811468184,9.34505911543965,
999.338,0.201999999999998,994,994,3,1,993,9.23252706415951,-0.238280883058906,9.23253810033202,
999.348,0.212000000000103,994,994,3,1,993,9.11607152782381,-0.25619138032198,9.11608256399632,
999.358,0.222000000000094,994,994,3,1,993,8.99547742679715,-0.274649010971189,8.99548843502998,
999.368,0.232000000000085,994,994,3,1,993,8.87579292990267,-0.292457574978471,8.87580396607518,
999.378,0.242000000000075,994,994,3,1,993,8.75892600975931,-0.309793637134135,8.75893704593182,
999.396,0.260000000000105,994,994,3,1,993.25,8.54889334179461,-0.341083141975105,8.54890437796712,
999.406,0.270000000000096,994,994,3,1,993.25,8.42613221146166,-0.359705584123731,8.42614324763417,
999.416,0.280000000000086,994,994,3,1,993.25,8.30529752187431,-0.377113525755703,8.30530855804682,
999.426,0.290000000000077,994,994,3,1,993.25,8.18648697808385,-0.394826764240861,8.18649804219604,
999.436,0.300000000000068,994,994,3,1,993.25,8.06774916127324,-0.412184270098805,8.06776016950607,
999.446,0.310000000000059,994,994,3,1,993.25,7.94662613421679,-0.429762313142419,7.94663719832897,
999.456,0.32000000000005,994,994,3,1,993.25,7.82400120981038,-0.447509419173002,7.82401224598289,
999.466,0.330000000000041,994,994,3,1,993.25,7.70115070044994,-0.465106260962784,7.70116170868278,
999.476,0.340000000000032,994,994,3,1,993.25,7.57756434381008,-0.483125457540154,7.57757535204291,
999.486,0.350000000000023,994,994,3,1,993.25,7.45313666760921,-0.50076040904969,7.45314767584205,
999.496,0.360000000000014,994,994,3,1,993.25,7.33220776543021,-0.517790578305721,7.33221877366304,
999.506,0.370000000000005,994,994,3,1,993.25,7.21249312162399,-0.535078942775726,7.21250418573618,
999.516,0.380000000000109,994,994,3,1,993.25,7.08919518627226,-0.552303418517113,7.08920622244477,
999.526,0.3900000000001,994,994,3,1,993.25,6.96453382261097,-0.569842015393078,6.96454485878348,
999.536,0.400000000000091,994,994,3,1,993.25,6.84272621758282,-0.586745687760413,6.84273725375533,
999.546,0.410000000000082,994,994,3,1,993.25,6.72302043065429,-0.603737477213144,6.72303149476647,
999.556,0.420000000000073,994,994,3,1,993.25,6.59991365857422,-0.620812349952757,6.59992469474673,
999.566,0.430000000000064,994,994,3,1,993.25,6.47396760061383,-0.637914347462356,6.47397860884666,
999.576,0.440000000000055,994,994,3,1,993.25,6.34824128821492,-0.655419402755797,6.35069595649838,
999.586,0.450000000000045,994,994,3,1,993.25,6.22982578352094,-0.671611479483545,6.22983679175377,
999.596,0.460000000000036,994,994,3,1,993.25,6.10861849039793,-0.688697621226311,6.10862955451012,
999.606,0.470000000000027,994,994,3,1,993.25,5.98321250639856,-0.705295265652239,5.98322354257107,
999.616,0.480000000000018,994,994,3,1,993.25,5.85825542919338,-0.721777072176337,5.85826646536589,
999.626,0.490000000000009,994,994,3,1,993.25,5.73374806903303,-0.738978600129485,5.73619483038783,
999.636,0.5,994,994,3,1,993.5,5.61086065135896,-0.755113307386637,5.61336742714047,
999.646,0.510000000000105,994,994,3,1,993.5,5.49315305426717,-0.766326957382262,5.49492068588734,
999.647,0.511000000000081,994,994,3,1,993.5,5.48510111868381,-0.766665651462972,5.48662137240171,
999.652,0.516000000000076,994,994,3,1,993.5,5.46710799448192,-0.765351476147771,5.46711903065443,
999.662,0.526000000000067,994,994,3,1,993.5,5.52831390872598,-0.749352569691837,5.52832491695881,
999.672,0.536000000000058,994,994,3,1,993.5,5.69336579181254,-0.721163009293377,5.69337682798505,
999.682,0.546000000000049,994,994,3,1,993.5,5.86020078510046,-0.694742854684591,5.86021179333329,
999.692,0.55600000000004,994,994,3,1,993.5,5.96499240025878,-0.676122927106917,5.96500346437097,
999.702,0.566000000000031,994,994,3,1,993.5,6.03611866012216,-0.662652933970094,6.03612972423434,
999.712,0.576000000000022,994,994,3,1,993.5,6.12314044497907,-0.647380794398487,6.12315148115158,
999.722,0.586000000000013,994,994,3,1,993.5,6.23958346433937,-0.628226576372981,6.23959450051188,
999.732,0.596000000000004,994,994,3,1,993.5,6.36385917663574,-0.609351932071149,6.36387018486857,
999.742,0.606000000000108,994,994,3,1,993.5,6.48025176487863,-0.591178829781711,6.47808562964201,
999.752,0.616000000000099,994,994,3,1,993.5,6.58312417566776,-0.574125028215349,6.58313518390059,
999.762,0.62600000000009,994,994,3,1,993.5,6.69234017841518,-0.557255665771663,6.69235121458769,
999.772,0.636000000000081,994,994,3,1,993.5,6.81035296060145,-0.53881598636508,6.81036399677396,
999.782,0.646000000000072,994,994,3,1,993.5,6.92806396633387,-0.521205984987319,6.9280749745667,
999.792,0.656000000000063,994,994,3,1,993.5,7.042042510584,-0.503871110267937,7.04205354675651,
999.802,0.666000000000054,994,994,3,1,993.5,7.15752622112632,-0.486296978779137,7.1575372852385,
999.812,0.676000000000045,994,994,3,1,993.5,7.27754674851894,-0.468454207293689,7.27755775675178,
999.822,0.686000000000035,994,994,3,1,993.5,7.39687537774444,-0.451030218973756,7.39688638597727,
999.832,0.696000000000026,994,994,3,1,993.5,7.512844260782,-0.433712862432003,7.51285532489419,
999.842,0.706000000000017,994,994,3,1,993.5,7.63240112923086,-0.415894403122365,7.63004466891289,
999.852,0.716000000000008,994,994,3,1,993.5,7.75003901682794,-0.398492650128901,7.75005005300045,
999.862,0.725999999999999,994,994,3,1,993.5,7.87153291516006,-0.380794876255095,7.87154395133257,
999.872,0.736000000000104,994,994,3,1,993.5,7.9904300160706,-0.363693335093558,7.99044108018279,
999.882,0.746000000000095,994,994,3,1,993.5,8.10853307135403,-0.346321067772806,8.10854410752654,
999.896,0.760000000000105,994,994,3,1,993.75,8.27818030491471,-0.321894506923854,8.27580023556948,
999.906,0.770000000000096,994,994,3,1,993.75,8.39473991654813,-0.304462471976876,8.39475095272064,
999.916,0.780000000000086,994,994,3,1,993.75,8.51511228829622,-0.28766815084964,8.51512329652905,
999.926,0.790000000000077,994,994,3,1,993.75,8.63478722982109,-0.27012387290597,8.63236276432872,
999.936,0.800000000000068,994,994,3,1,993.75,8.75664277933538,-0.252835298888385,8.75424552708864,
999.946,0.810000000000059,994,994,3,1,993.75,8.87468400411308,-0.235711606219411,8.87469504028559,
999.956,0.82000000000005,994,994,3,1,993.75,8.99341874755919,-0.218450645916164,8.9934297837317,
999.966,0.830000000000041,994,994,3,1,993.75,9.11554497666657,-0.201053959317505,9.11555601283908,
999.976,0.840000000000032,994,994,3,1,993.75,9.24495820887387,-0.182508169673383,9.24240214750171,
999.986,0.850000000000023,994,994,3,1,993.75,9.37059282325208,-0.164825050160289,9.37060385942459,
999.996,0.860000000000014,994,994,3,1,993.75,9.48875267989933,-0.148067655973136,9.48876371607184,
1000.006,0.870000000000005,994,994,3,1,993.75,9.60600175894797,-0.131585923954844,9.60601279512048,
1000.016,0.880000000000109,994,994,3,1,993.75,9.72971216775477,-0.113789844326675,9.72972320392728,
1000.026,0.8900000000001,994,994,3,1,993.75,9.85456782393157,-0.0968690030276775,9.85457886010408,
1000.036,0.900000000000091,994,994,3,1,993.75,9.97735739685595,-0.0798252876847982,9.97736843302846,
1000.046,0.910000000000082,994,994,3,1,993.75,10.1000666990876,-0.0632920628413558,10.1000777631998,
1000.056,0.920000000000073,994,994,3,1,993.75,10.2278833743185,-0.0466552004218102,10.227894410491,
1000.066,0.930000000000064,994,994,3,1,993.75,10.3590939100832,-0.0310279335826635,10.3591049462557,
1000.076,0.940000000000055,994,994,3,1,993.75,10.4877755139023,-0.0176528794690967,10.4877865500748,
1000.086,0.950000000000045,994,994,3,1,993.75,10.6202485878021,-0.00921995379030705,10.6202596239746,
1000.096,0.960000000000036,994,994,3,1,993.75,10.7646285463124,-0.00522911548614502,10.7616748474538,
1000.106,0.970000000000027,994,994,3,1,993.75,10.9110192675143,-0.00352059025317431,10.9110303036869,
1000.116,0.980000000000018,994,994,3,1,993.75,11.0547207668424,-0.00283306464552879,11.0547317750752,
1000.126,0.990000000000009,994,994,3,1,993.75,11.188891036436,-0.0025828555226326,11.1889020726085,
