"Total Time (s)","Cycle Elapsed Time (s)","Total Cycles","Elapsed Cycles","Step","Loop 1","Total Cycle Count(Linear Waveform)","Position(Linear:Position) (mm)","Force(Linear:Load) (kN)","Displacement(Linear:Digital Position) (mm)",
6.151,0,1,1,3,1,0,11.5851953811944,-0.0201701233163476,11.5851966105401,
6.155,0.00400000000000045,1,1,3,1,0,11.5851837024093,-0.0198905635625124,11.5851849317551,
6.165,0.0140000000000002,1,1,3,1,0,11.5851570479572,-0.0200359849259257,11.5851583331823,
6.175,0.024,1,1,3,1,0,11.5840404946357,-0.0205631321296096,11.5840417519212,
6.185,0.0340000000000007,1,1,3,1,0,11.5751143824309,-0.0227266922593117,11.5751156397164,
6.195,0.0440000000000005,1,1,3,1,0,11.5523967985064,-0.0272694323211908,11.5523980557919,
6.205,0.0540000000000003,1,1,3,1,0,11.5145429503173,-0.0351049518212676,11.5145442076027,
6.215,0.0640000000000001,1,1,3,1,0,11.4642706420273,-0.046703708358109,11.4642718993127,
6.225,0.0740000000000007,1,1,3,1,0,11.4060438238084,-0.0613220036029816,11.4060450531542,
6.235,0.0840000000000005,1,1,3,1,0,11.3431110978127,-0.0797705445438623,11.3431123271585,
6.245,0.0940000000000003,1,1,3,1,0,11.2742081098258,-0.101437265984714,11.2742093391716,
6.255,0.104,1,1,3,1,0,11.1983758863062,-0.126225184649229,11.1983771435916,
6.265,0.114000000000001,1,1,3,1,0,11.1112443823367,-0.156196956522763,11.1130467429757,
6.275,0.124000000000001,1,1,3,1,0,11.0173994209617,-0.19101245328784,11.0174006782472,
6.285,0.134,1,1,3,1,0,10.9100234694779,-0.230889632366598,10.9100246988237,
6.295,0.144,1,1,3,1,0,10.7890933658928,-0.276717818342149,10.7915750518441,
6.305,0.154,1,1,3,1,0,10.6632013991475,-0.324797453358769,10.6632026284933,
6.315,0.164000000000001,1,1,3,1,0,10.5239086970687,-0.378069821745157,10.5239099264145,
6.325,0.174,1,1,3,1,0,10.3727678395808,-0.43602729216218,10.3727690689266,
6.335,0.184,1,1,3,1,0,10.2063518576324,-0.499687856063247,10.2097354084253,
6.345,0.194,1,1,3,1,0,10.0345591921359,-0.565198035910726,10.0345604494214,
6.351,0.2,1,1,3,1,0,9.91810569539666,-0.609402386471629,9.91810692474246,
6.361,0.21,1,1,3,1,0,9.73134459927678,-0.677519794553518,9.73134582862258,
6.371,0.220000000000001,1,1,3,1,0,9.56501900218427,-0.736043099313974,9.56502025946975,
6.381,0.23,1,1,3,1,0,9.42802749574184,-0.782267614267766,9.42802872508764,
6.391,0.24,1,1,3,1,0,9.29918543435633,-0.825874959118664,9.29918669164181,
6.401,0.25,1,1,3,1,0.25,9.17229931801558,-0.868784352205694,9.17230054736137,
6.411,0.260000000000001,1,1,3,1,0.25,9.04747609980404,-0.910492572002113,9.04747735708952,
6.421,0.27,1,1,3,1,0.25,8.92156560905278,-0.953466715291142,8.92156686633825,
6.431,0.28,1,1,3,1,0.25,8.79447553306818,-0.996293905191123,8.79447676241398,
6.441,0.29,1,1,3,1,0.25,8.66426199674606,-1.0398822510615,8.66426322609186,
6.451,0.300000000000001,1,1,3,1,0.25,8.54285529814661,-1.08028311748058,8.54285655543208,
6.461,0.310000000000001,1,1,3,1,0.25,8.41803512535989,-1.12198658287525,8.41803638264537,
6.471,0.32,1,1,3,1,0.25,8.29186323098838,-1.16387594491243,8.29186448827386,
6.481,0.33,1,1,3,1,0.25,8.16639136523008,-1.20496656745672,8.16884430125356,
6.491,0.340000000000001,1,1,3,1,0.25,8.04640514776111,-1.24426376540214,8.04640637710691,
6.501,0.350000000000001,1,1,3,1,0.25,7.92245979420841,-1.28524726256728,7.92246105149388,
6.511,0.36,1,1,3,1,0.25,7.79740408994257,-1.32544701453298,7.79740534722805,
6.521,0.37,1,1,3,1,0.25,7.67130240797996,-1.36685191188008,7.67130363732576,
6.531,0.38,1,1,3,1,0.25,7.54995742812753,-1.40616145916283,7.54995865747333,
6.541,0.390000000000001,1,1,3,1,0.25,7.42544126696885,-1.44648754969239,7.42544252425432,
6.551,0.4,1,1,3,1,0.25,7.29939753189683,-1.48713342379779,7.29939876124263,
6.561,0.41,1,1,3,1,0.25,7.17338101007044,-1.52655021287501,7.17585442587733,
6.571,0.42,1,1,3,1,0.25,7.05121144652367,-1.565818679519,7.05121267586946,
6.581,0.430000000000001,1,1,3,1,0.25,6.93052900023758,-1.60451043862849,6.93053025752306,
6.591,0.44,1,1,3,1,0.25,6.80510217323899,-1.64444589987397,6.80510340258479,
6.601,0.45,1,1,3,1,0.25,6.68031829409301,-1.6835022950545,6.68031955137849,
6.611,0.46,1,1,3,1,0.25,6.56086647883058,-1.7211234010756,6.56086770817637,
6.621,0.470000000000001,1,1,3,1,0.25,6.43708012998104,-1.7604000447318,6.43708135932684,
6.631,0.48,1,1,3,1,0.25,6.31301418878138,-1.7991457413882,6.31301544606686,
6.641,0.49,1,1,3,1,0.25,6.1896991264075,-1.83750736527145,6.18970038369298,
6.651,0.5,1,1,3,1,0.5,6.06811582110822,-1.87502353452146,6.0681170783937,
6.661,0.510000000000001,1,1,3,1,0.5,5.951795456931,-1.90770415589213,5.95179671421647,
6.668,0.517,1,1,3,1,0.5,5.90409893542528,-1.91380630247295,5.90410016477108,
6.674,0.523000000000001,1,1,3,1,0.5,5.89294829405844,-1.90756654366851,5.89294955134392,
6.684,0.533,1,1,3,1,0.5,5.90026997029781,-1.88849265687168,5.90027125552297,
6.694,0.543,1,1,3,1,0.5,5.94129480421543,-1.85751270037144,5.94129603356123,
6.704,0.553,1,1,3,1,0.5,5.99821957759559,-1.82207968086004,5.99822083488107,
6.714,0.563000000000001,1,1,3,1,0.5,6.06541994959116,-1.78608162794262,6.06542117893696,
6.724,0.573,1,1,3,1,0.5,6.1383072193712,-1.74908764194697,6.13830847665668,
6.734,0.583,1,1,3,1,0.5,6.21588167734444,-1.71124786604196,6.21588293462992,
6.744,0.593,1,1,3,1,0.5,6.30241873674095,-1.67211924213916,6.30062526091933,
6.754,0.603000000000001,1,1,3,1,0.5,6.39418694190681,-1.63083284627646,6.39418819919229,
6.764,0.613,1,1,3,1,0.5,6.49112963117659,-1.5883407741785,6.49113088846207,
6.774,0.623,1,1,3,1,0.5,6.59157056361437,-1.54639001004398,6.59157179296017,
6.784,0.633,1,1,3,1,0.5,6.69632934965193,-1.50371966417879,6.69633060693741,
6.794,0.643000000000001,1,1,3,1,0.5,6.8012782651931,-1.4611970866099,6.80127952247858,
6.804,0.653,1,1,3,1,0.5,6.91034275107086,-1.41778965946287,6.91034400835633,
6.814,0.663,1,1,3,1,0.5,7.023601597175,-1.37428951449692,7.02360285446048,
6.824,0.673,1,1,3,1,0.5,7.13932486250997,-1.3293601712212,7.13705090805888,
6.834,0.683000000000001,1,1,3,1,0.5,7.25281641818583,-1.28707225900143,7.25281767547131,
6.844,0.693000000000001,1,1,3,1,0.5,7.36555650830269,-1.24525974038988,7.36555779352784,
6.854,0.703,1,1,3,1,0.5,7.48475435189903,-1.20092561002821,7.4847556091845,
6.864,0.713,1,1,3,1,0.5,7.60715349577367,-1.15722152404487,7.60477194562554,
6.874,0.723000000000001,1,1,3,1,0.5,7.72591321729124,-1.11343920696527,7.72591447457671,
6.884,0.733000000000001,1,1,3,1,0.5,7.84290608949959,-1.07212393078953,7.84290734678507,
6.894,0.743,1,1,3,1,0.5,7.962581589818,-1.02954730857164,7.9625828191638,
6.911,0.760000000000001,1,1,3,1,0.75,8.16956480965018,-0.957369483076036,8.16956609487533,
6.921,0.77,1,1,3,1,0.75,8.28878221102059,-0.916055380366743,8.28878346830606,
6.931,0.78,1,1,3,1,0.75,8.40893654152751,-0.874802805483341,8.40893777087331,
6.941,0.79,1,1,3,1,0.75,8.52972831577063,-0.833507864736021,8.52972954511642,
6.951,0.800000000000001,1,1,3,1,0.75,8.65185876376927,-0.791613161563873,8.65186002105474,
6.961,0.810000000000001,1,1,3,1,0.75,8.77357732504606,-0.750726144760847,8.77357861027121,
6.971,0.82,1,1,3,1,0.75,8.89390191994607,-0.710273166187108,8.89390317723155,
6.981,0.83,1,1,3,1,0.75,9.01619715616107,-0.669139390811324,9.01619838550687,
6.991,0.840000000000001,1,1,3,1,0.75,9.13961109705269,-0.627956734970212,9.13961235433817,
7.001,0.850000000000001,1,1,3,1,0.75,9.26308052614331,-0.58693646453321,9.26308175548911,
7.011,0.86,1,1,3,1,0.75,9.38603544607759,-0.546363741159439,9.38603667542338,
7.021,0.87,1,1,3,1,0.75,9.50771399773657,-0.505762561224401,9.50771525502205,
7.031,0.880000000000001,1,1,3,1,0.75,9.63409102521837,-0.464225835166872,9.63409228250384,
7.041,0.890000000000001,1,1,3,1,0.75,9.75521441549063,-0.424900385551155,9.75521564483643,
7.051,0.9,1,1,3,1,0.75,9.87721874378622,-0.385152488015592,9.87722000107169,
7.061,0.91,1,1,3,1,0.75,9.99823392368853,-0.346170738339424,9.99823518097401,
7.071,0.92,1,1,3,1,0.75,10.1208293158561,-0.306586911901832,10.1208305731416,
7.081,0.930000000000001,1,1,3,1,0.75,10.244875755161,-0.266860346309841,10.2448769845068,
7.091,0.94,1,1,3,1,0.75,10.3664554003626,-0.228532175533473,10.3664566576481,
7.101,0.95,1,1,3,1,0.75,10.4914092645049,-0.189465461298823,10.4914104938507,
7.111,0.96,1,1,3,1,0.75,10.6208060402423,-0.149888237938285,10.6208072975278,
7.121,0.970000000000001,1,1,3,1,0.75,10.7467674929649,-0.113785313442349,10.7467687502503,
7.131,0.98,1,1,3,1,0.75,10.8707683905959,-0.0799972657114267,10.8707696199417,
7.141,0.99,1,1,3,1,0.75,11.0003777034581,-0.0487300474196672,11.0003789328039,
7.151,1,1,1,3,1,1,11.1432604305446,-0.0221412163227797,11.1432616598904,
7.161,0.0100000000000007,2,2,3,1,1,11.2943113222718,-0.00946436077356339,11.2943125516176,
7.171,0.0200000000000005,2,2,3,1,1,11.3782373070717,-0.00908674672245979,11.3782385364175,
7.173,0.0220000000000002,2,2,3,1,1,11.3808482140303,-0.00869837123900652,11.3808494433761,
7.175,0.024,2,2,3,1,1,11.3797509111464,-0.00737166963517666,11.3797521404922,
7.185,0.0340000000000007,2,2,3,1,1,11.3290523830801,-0.0152157945558429,11.3290536403656,
7.195,0.0440000000000005,2,2,3,1,1,11.2148046121001,-0.0342887034639716,11.2148058414459,
7.205,0.0540000000000003,2,2,3,1,1,11.1079637892544,-0.0635028723627329,11.1079650186002,
7.215,0.0640000000000001,2,2,3,1,1,11.025154273957,-0.0911550968885422,11.0267098434269,
7.225,0.0740000000000007,2,2,3,1,1,10.945485541597,-0.120118875056505,10.9471070207655,
7.235,0.0840000000000005,2,2,3,1,1,10.8658452238888,-0.14952203258872,10.8658464811742,
7.245,0.0940000000000003,2,2,3,1,1,10.7800233643502,-0.181873813271523,10.7800246216357,
7.255,0.104,2,2,3,1,1,10.6896331999451,-0.216254871338606,10.6896344572306,
7.265,0.114000000000001,2,2,3,1,1,10.5953392758965,-0.252689938060939,10.5953405052423,
7.275,0.124000000000001,2,2,3,1,1,10.4939628392458,-0.291143376380205,10.4939640685916,
7.285,0.134,2,2,3,1,1,10.3886141907424,-0.331461718305945,10.3886154480278,
7.295,0.144,2,2,3,1,1,10.2826218120754,-0.371391829103231,10.2826230414212,
7.305,0.154,2,2,3,1,1,10.1766784396023,-0.411036307923496,10.1766796968877,
7.315,0.164000000000001,2,2,3,1,1,10.0687625259161,-0.45158326625824,10.0687638111413,
7.325,0.174,2,2,3,1,1,9.95787316001952,-0.492738937027752,9.95787441730499,
7.335,0.184,2,2,3,1,1,9.84695945866406,-0.533483531326056,9.84696071594954,
7.345,0.194,2,2,3,1,1,9.73527909256518,-0.574434986338019,9.73528034985065,
7.355,0.204000000000001,2,2,3,1,1,9.6232929546386,-0.615513976663351,9.62329421192408,
7.365,0.214,2,2,3,1,1,9.50694294646382,-0.657511134631932,9.5092324912548,
7.375,0.224,2,2,3,1,1,9.39324977807701,-0.698638898320496,9.39325103536248,
7.385,0.234,2,2,3,1,1,9.27787768654525,-0.740067423321307,9.27787894383073,
7.395,0.244000000000001,2,2,3,1,1,9.1637265868485,-0.780731132254004,9.1637278161943,
7.411,0.260000000000001,2,2,3,1,1.25,8.97902755066752,-0.846184371039271,8.97902878001332,
7.421,0.27,2,2,3,1,1.25,8.86120196431875,-0.887912535108626,8.86120324954391,
7.431,0.28,2,2,3,1,1.25,8.74303962104023,-0.929123153910041,8.7430408783257,
7.441,0.29,2,2,3,1,1.25,8.6256037093699,-0.9700957685709,8.6256049387157,
7.451,0.300000000000001,2,2,3,1,1.25,8.50910732522607,-1.01109378505498,8.50910855457187,
7.461,0.310000000000001,2,2,3,1,1.25,8.38930428028107,-1.05250855442137,8.38930550962687,
7.471,0.32,2,2,3,1,1.25,8.26962699182332,-1.09397969208658,8.26962824910879,
7.481,0.33,2,2,3,1,1.25,8.15158730372786,-1.13441755995154,8.15158853307366,
7.491,0.340000000000001,2,2,3,1,1.25,8.03325606510043,-1.17497022263706,8.03325729444623,
7.501,0.350000000000001,2,2,3,1,1.25,7.91285214945674,-1.21639919001609,7.91285337880254,
7.511,0.36,2,2,3,1,1.25,7.79087271541357,-1.25797200482339,7.79087394475937,
7.521,0.37,2,2,3,1,1.25,7.67053571529686,-1.29935213830322,7.67053697258234,
7.531,0.380000000000001,2,2,3,1,1.25,7.54754265770316,-1.34066724218428,7.54754394292831,
7.541,0.390000000000001,2,2,3,1,1.25,7.42836523801088,-1.38147330842912,7.42836646735668,
7.551,0.4,2,2,3,1,1.25,7.30601507239044,-1.42276200465858,7.30601632967591,
7.561,0.41,2,2,3,1,1.25,7.18373849987984,-1.46364294923842,7.18373972922564,
7.571,0.42,2,2,3,1,1.25,7.06518597900867,-1.50307683739811,7.06518726423383,
7.581,0.430000000000001,2,2,3,1,1.25,6.94436070509255,-1.54390226583928,6.94436196237803,
7.591,0.44,2,2,3,1,1.25,6.8228604644537,-1.58373875077814,6.8228616937995,
7.601,0.45,2,2,3,1,1.25,6.70409847982228,-1.62356628105044,6.70409973710775,
7.611,0.46,2,2,3,1,1.25,6.58351575024426,-1.66342342738062,6.58351700752974,
7.621,0.470000000000001,2,2,3,1,1.25,6.46159867756069,-1.70402915216982,6.46159993484616,
7.631,0.48,2,2,3,1,1.25,6.335488865152,-1.74474032595754,6.33797479793429,
7.641,0.49,2,2,3,1,1.25,6.21284175664186,-1.7852885229513,6.2152730114758,
7.651,0.5,2,2,3,1,1.5,6.09409773722291,-1.82448349427432,6.09409896656871,
7.661,0.510000000000001,2,2,3,1,1.5,5.97895028069615,-1.85822945553809,5.97895151004195,
7.667,0.516,2,2,3,1,1.5,5.93534287065268,-1.86622916720808,5.93534409999847,
7.674,0.523000000000001,2,2,3,1,1.5,5.92106301337481,-1.86105857137591,5.9210642427206,
7.684,0.533,2,2,3,1,1.5,5.93158543109894,-1.84090219438076,5.93158666044474,
7.694,0.543,2,2,3,1,1.5,5.97086202353239,-1.81267782580107,5.97086325287819,
7.704,0.553,2,2,3,1,1.5,6.02704416029155,-1.77944461815059,6.02704541757703,
7.714,0.563000000000001,2,2,3,1,1.5,6.09126666560769,-1.74494091887027,6.09126795083284,
7.724,0.573,2,2,3,1,1.5,6.1614148132503,-1.70946285594255,6.1614160425961,
7.734,0.583,2,2,3,1,1.5,6.23815200291574,-1.67319712694734,6.23815326020122,
7.744,0.593,2,2,3,1,1.5,6.3214198127389,-1.63514256943017,6.32142104208469,
7.754,0.603000000000001,2,2,3,1,1.5,6.41258893534541,-1.59480722621083,6.41259016469121,
7.764,0.613,2,2,3,1,1.5,6.50728773325682,-1.55418109148741,6.50728896260261,
7.774,0.623,2,2,3,1,1.5,6.60623263567686,-1.51292879600078,6.60623392090201,
7.784,0.633,2,2,3,1,1.5,6.70991085469723,-1.47067134734243,6.70991208404303,
7.794,0.643000000000001,2,2,3,1,1.5,6.81688036769629,-1.42758515663445,6.81476237252355,
7.804,0.653,2,2,3,1,1.5,6.92153692245483,-1.38628700282425,6.92153820767999,
7.814,0.663,2,2,3,1,1.5,7.0350531488657,-1.34245542809367,7.0350543782115,
7.824,0.673,2,2,3,1,1.5,7.14609769172966,-1.29982141777873,7.14609894901514,
7.834,0.683000000000001,2,2,3,1,1.5,7.25892780348659,-1.2576303910464,7.25892903283238,
7.844,0.693000000000001,2,2,3,1,1.5,7.37377608194947,-1.21451545506716,7.37377731129527,
7.854,0.703,2,2,3,1,1.5,7.49140882864594,-1.1711037857458,7.49141005799174,
7.864,0.713,2,2,3,1,1.5,7.6103999465704,-1.12839790992439,7.61040117591619,
7.874,0.723000000000001,2,2,3,1,1.5,7.7289959974587,-1.0852877702564,7.72899722680449,
7.884,0.733000000000001,2,2,3,1,1.5,7.84743083640933,-1.04331979528069,7.84743206575513,
7.894,0.743,2,2,3,1,1.5,7.9672631341964,-1.00094360299408,7.96726439148188,
7.911,0.760000000000001,2,2,3,1,1.75,8.17336832173169,-0.92906198464334,8.17336957901716,
7.921,0.77,2,2,3,1,1.75,8.29474836587906,-0.88720625732094,8.29474959522486,
7.931,0.78,2,2,3,1,1.75,8.41431898064911,-0.846996819600463,8.41192128136754,
7.941,0.79,2,2,3,1,1.75,8.53260735981166,-0.805650991387665,8.53260861709714,
7.951,0.800000000000001,2,2,3,1,1.75,8.65516190417111,-0.764070441946387,8.65516316145658,
7.961,0.810000000000001,2,2,3,1,1.75,8.77572569064796,-0.723424516618252,8.77572694793344,
7.971,0.82,2,2,3,1,1.75,8.89641118235886,-0.68285939283669,8.89641243964434,
7.981,0.83,2,2,3,1,1.75,9.01858513243496,-0.642026322893798,9.01858638972044,
7.991,0.840000000000001,2,2,3,1,1.75,9.14190164767206,-0.600813701748848,9.14190290495753,
8.001,0.85,2,2,3,1,1.75,9.26665280945599,-0.559491226449609,9.26665406674147,
8.011,0.860000000000001,2,2,3,1,1.75,9.3882220890373,-0.51972362678498,9.38822334632277,
8.021,0.870000000000001,2,2,3,1,1.75,9.5106388349086,-0.479467869736254,9.51064009219408,
8.031,0.880000000000001,2,2,3,1,1.75,9.63410242460668,-0.439079822972417,9.63410368189216,
8.041,0.890000000000001,2,2,3,1,1.75,9.75963005796075,-0.39903427939862,9.75719712674618,
8.051,0.9,2,2,3,1,1.75,9.87832646816969,-0.36002155393362,9.87832769751549,
8.061,0.91,2,2,3,1,1.75,10.0017988029867,-0.320589253678918,10.0018000602722,
8.071,0.92,2,2,3,1,1.75,10.1218848209828,-0.281853955239058,10.1218860782683,
8.081,0.93,2,2,3,1,1.75,10.2489016391337,-0.241982834413648,10.2489028684795,
8.091,0.94,2,2,3,1,1.75,10.3705084975809,-0.203653182834387,10.3705097548664,
8.101,0.950000000000001,2,2,3,1,1.75,10.4981740470976,-0.164577369578183,10.498175304383,
8.111,0.960000000000001,2,2,3,1,1.75,10.6253232154995,-0.12708212248981,10.625324472785,
8.121,0.970000000000001,2,2,3,1,1.75,10.7528427522629,-0.0923951156437397,10.750343631953,
8.131,0.98,2,2,3,1,1.75,10.8779224008322,-0.0597131066024303,10.877923630178,
8.141,0.99,2,2,3,1,1.75,11.0141888726503,-0.031153759919107,11.0141901299357,
8.151,1,2,2,3,1,2,11.1683072336018,-0.0101419817656279,11.1683084629476,
8.16,0.00900000000000034,3,3,3,1,2,11.3146142754704,-0.00416070688515902,11.3146155327559,
8.17,0.0190000000000001,3,3,3,1,2,11.4305086992681,-0.00679385848343372,11.4305099286139,
8.174,0.0229999999999997,3,3,3,1,2,11.4420387335122,-0.00668455380946398,11.442039962858,
8.184,0.0330000000000013,3,3,3,1,2,11.3974667899311,-0.007863431237638,11.3974680192769,
8.194,0.043000000000001,3,3,3,1,2,11.2593706604093,-0.0169196492061019,11.2593719176948,
8.204,0.0530000000000008,3,3,3,1,2,11.1161981709301,-0.0447452440857887,11.1161994002759,
8.214,0.0630000000000006,3,3,3,1,2,11.0227850452065,-0.0733962375670671,11.0227862745523,
8.224,0.0730000000000004,3,3,3,1,2,10.9498609229922,-0.0978567125275731,10.9512887522578,
8.234,0.0830000000000002,3,3,3,1,2,10.8736126497388,-0.126029811799526,10.8736138790846,
8.244,0.093,3,3,3,1,2,10.7877959031612,-0.157533260062337,10.7877971604466,
8.254,0.103,3,3,3,1,2,10.6971787009388,-0.191951100714505,10.6971799582243,
8.264,0.113,3,3,3,1,2,10.6039781682193,-0.227201646193862,10.6039793975651,
8.274,0.123000000000001,3,3,3,1,2,10.5044930800796,-0.265278532169759,10.5044943094254,
8.284,0.133000000000001,3,3,3,1,2,10.3998101782054,-0.305314236320555,10.3998114354908,
8.294,0.143000000000001,3,3,3,1,2,10.2920900098979,-0.344928735867143,10.2942019701004,
8.304,0.153,3,3,3,1,2,10.1874504424632,-0.384887438267469,10.187451671809,
8.314,0.163,3,3,3,1,2,10.0786541774869,-0.425730082206428,10.0786554068327,
8.324,0.173,3,3,3,1,2,9.96798701584339,-0.466743330471218,9.96798824518919,
8.334,0.183,3,3,3,1,2,9.8569795768708,-0.507516693323851,9.85698083415627,
8.344,0.193,3,3,3,1,2,9.74617679603398,-0.548193147405982,9.74617805331945,
8.354,0.203000000000001,3,3,3,1,2,9.63409795425832,-0.589181785471737,9.6340992115438,
8.364,0.213000000000001,3,3,3,1,2,9.51857487671077,-0.631127888336778,9.51857613399625,
8.374,0.223000000000001,3,3,3,1,2,9.39953617751598,-0.674238041974604,9.40185841172934,
8.384,0.233000000000001,3,3,3,1,2,9.28580232895911,-0.714669581502676,9.28580358624458,
8.394,0.243,3,3,3,1,2,9.17127890512347,-0.755757130682468,9.17128013446927,
8.411,0.26,3,3,3,1,2.25,8.97354234941304,-0.826133689843118,8.97354360669851,
8.421,0.27,3,3,3,1,2.25,8.85314092040062,-0.867662159726024,8.85550422593951,
8.431,0.280000000000001,3,3,3,1,2.25,8.73599261976779,-0.909647215157747,8.73599387705326,
8.441,0.290000000000001,3,3,3,1,2.25,8.61846565268934,-0.95112219452858,8.61846690997481,
8.451,0.300000000000001,3,3,3,1,2.25,8.50047826766968,-0.992035968229175,8.50047949701548,
8.461,0.310000000000001,3,3,3,1,2.25,8.37934476323426,-1.03456454817206,8.37934602051973,
8.471,0.32,3,3,3,1,2.25,8.25900357216597,-1.07614475302398,8.25900480151176,
8.481,0.33,3,3,3,1,2.25,8.14039958640933,-1.11672338563949,8.14040087163448,
8.491,0.34,3,3,3,1,2.25,8.02160105668008,-1.15823044907302,8.02160231396556,
8.501,0.35,3,3,3,1,2.25,7.90025769732892,-1.19962281081825,7.9002589546144,
8.511,0.360000000000001,3,3,3,1,2.25,7.77490767650306,-1.24173288233578,7.77736125513911,
8.521,0.370000000000001,3,3,3,1,2.25,7.65383725985885,-1.28416085615754,7.65383848920465,
