"Total Time (s)","Cycle Elapsed Time (s)","Total Cycles","Elapsed Cycles","Step","Loop 1","Total Cycle Count(Linear Waveform)","Position(Linear:Position) (mm)","Force(Linear:Load) (kN)","Displacement(Linear:Digital Position) (mm)",
6.139,0,1,1,3,1,0,11.4598212204874,-0.0199790485203266,11.4598201029003,
6.154,0.0149999999999997,1,1,3,1,0,11.4596976153553,-0.0201426027342677,11.4596964977682,
6.164,0.0249999999999995,1,1,3,1,0,11.4581289421767,-0.0208575790748,11.4581278525293,
6.174,0.0350000000000001,1,1,3,1,0,11.4497697819024,-0.0242950208485127,11.449768692255,
6.184,0.0449999999999999,1,1,3,1,0,11.4301635045558,-0.0316101498901844,11.4301623590291,
6.194,0.0549999999999997,1,1,3,1,0,11.3990880455822,-0.0431343726813793,11.3990869559348,
6.204,0.0649999999999995,1,1,3,1,0,11.359746074304,-0.05976936314255,11.3597449846566,
6.214,0.0750000000000002,1,1,3,1,0,11.313454946503,-0.0818640319630504,11.3134538568556,
6.224,0.085,1,1,3,1,0,11.2592745479196,-0.109143913723528,11.2592734582722,
6.234,0.0949999999999998,1,1,3,1,0,11.2016234267503,-0.14030818361789,11.2016223371029,
6.244,0.105,1,1,3,1,0,11.1385702807456,-0.175432749092579,11.1385691910982,
6.254,0.115,1,1,3,1,0,11.0669081378728,-0.217011361382902,11.0669070482254,
6.264,0.125,1,1,3,1,0,10.9845004510134,-0.266091236844659,10.984499361366,
6.274,0.135,1,1,3,1,0,10.8907122910023,-0.322066661901772,10.8907111734152,
6.284,0.145,1,1,3,1,0,10.788120450452,-0.383224203251302,10.7881193608046,
6.294,0.155,1,1,3,1,0,10.6762571912259,-0.449794856831431,10.6762561015785,
6.304,0.165,1,1,3,1,0,10.5532087571919,-0.522910882718861,10.5532076396048,
6.314,0.175,1,1,3,1,0,10.4176877159625,-0.603296011686325,10.4176866263151,
6.324,0.185,1,1,3,1,0,10.2699993923306,-0.689491727389395,10.2699982747436,
6.334,0.195,1,1,3,1,0,10.1102645974606,-0.782103757373989,10.1102635078132,
6.339,0.2,1,1,3,1,0,10.02646073699,-0.830629784613848,10.0264596194029,
6.349,0.21,1,1,3,1,0,9.85225087031722,-0.92678383924067,9.85224975273013,
6.359,0.22,1,1,3,1,0,9.69766147434711,-1.00518147461116,9.69766035676003,
6.369,0.23,1,1,3,1,0,9.55983057618141,-1.07214231044054,9.55982945859432,
6.379,0.24,1,1,3,1,0,9.42555053159595,-1.13661332055926,9.42816166207194,
6.389,0.25,1,1,3,1,0.25,9.29567330516875,-1.19946570135653,9.29829183965921,
6.399,0.26,1,1,3,1,0.25,9.16893272660672,-1.26020819880068,9.16893163695931,
6.409,0.27,1,1,3,1,0.25,9.03764387592673,-1.32295362651348,9.03764275833964,
6.419,0.28,1,1,3,1,0.25,8.91265648417175,-1.38208183925599,8.91265539452434,
6.429,0.29,1,1,3,1,0.25,8.78301160410047,-1.44254298880696,8.78301048651338,
6.439,0.3,1,1,3,1,0.25,8.65790912881493,-1.50143940467387,8.65790801122785,
6.449,0.31,1,1,3,1,0.25,8.52964424528182,-1.56073551625013,8.5296431556344,
6.459,0.32,1,1,3,1,0.25,8.40287712402642,-1.61878125742078,8.40287603437901,
6.469,0.33,1,1,3,1,0.25,8.27750860713422,-1.67603511828929,8.27750751748681,
6.479,0.34,1,1,3,1,0.25,8.15012600272894,-1.73357937019318,8.15012488514185,
6.489,0.35,1,1,3,1,0.25,8.02125756628811,-1.79079701192677,8.02378753200173,
6.499,0.36,1,1,3,1,0.25,7.8974440600723,-1.84692776296288,7.89744297042489,
6.509,0.37,1,1,3,1,0.25,7.76852130889892,-1.90413296222687,7.77104554697871,
6.519,0.38,1,1,3,1,0.25,7.64138773083687,-1.96018912363797,7.64391303062439,
6.529,0.39,1,1,3,1,0.25,7.51519194804132,-2.01452896464616,7.51771710813045,
6.539,0.399999999999999,1,1,3,1,0.25,7.38930006511509,-2.07039958331734,7.38929897546768,
6.549,0.41,1,1,3,1,0.25,7.26449749432504,-2.12534578051418,7.26449640467763,
6.559,0.42,1,1,3,1,0.25,7.13537771254778,-2.17937916051596,7.13788418099284,
6.569,0.43,1,1,3,1,0.25,7.00946384109557,-2.23345452453941,7.01201789081097,
6.579,0.44,1,1,3,1,0.25,6.88195936381817,-2.28926562238485,6.88195824623108,
6.589,0.45,1,1,3,1,0.25,6.7575869243592,-2.34224247280508,6.75758583471179,
6.599,0.46,1,1,3,1,0.25,6.63227568380535,-2.39488827995956,6.63227459415793,
6.609,0.47,1,1,3,1,0.25,6.50680820457637,-2.44698206428438,6.50680711492896,
6.619,0.48,1,1,3,1,0.25,6.38055397197604,-2.50072333030403,6.38055285438895,
6.629,0.49,1,1,3,1,0.25,6.25369976274669,-2.55351286381483,6.25369867309928,
6.639,0.5,1,1,3,1,0.5,6.12698201090097,-2.60639065410942,6.12698089331388,
6.649,0.51,1,1,3,1,0.5,6.00398283451795,-2.65101030468941,6.00604182109237,
6.655,0.516,1,1,3,1,0.5,5.95583117567003,-2.65802739188075,5.95583008602261,
6.665,0.526,1,1,3,1,0.5,5.91438420116901,-2.64188559260219,5.91438308358192,
6.675,0.536,1,1,3,1,0.5,5.90547851286829,-2.61163922958076,5.90547742322087,
6.676,0.537,1,1,3,1,0.5,5.90542729943991,-2.60856698267162,5.90542618185282,
6.686,0.547,1,1,3,1,0.5,5.9061570558697,-2.57963919080794,5.90615596622229,
6.696,0.557,1,1,3,1,0.5,5.91840460896492,-2.54581798333675,5.91840349137783,
6.706,0.567,1,1,3,1,0.5,5.95046843402088,-2.50168469268829,5.95046734437346,
6.716,0.577,1,1,3,1,0.5,5.99668697454035,-2.4504043161869,5.99562110379338,
6.726,0.587,1,1,3,1,0.5,6.05087083764374,-2.40035074297339,6.05086974799633,
6.736,0.597,1,1,3,1,0.5,6.11326742917299,-2.34691441059113,6.1132663115859,
6.746,0.607,1,1,3,1,0.5,6.18490115739405,-2.29069375898689,6.18339283391833,
6.756,0.617,1,1,3,1,0.5,6.26274126581848,-2.23223749082536,6.26109179109335,
6.766,0.627,1,1,3,1,0.5,6.34724775329232,-2.17019820585847,6.34545911103487,
6.776,0.637,1,1,3,1,0.5,6.4346612803638,-2.11107489652932,6.43466016277671,
6.786,0.647,1,1,3,1,0.5,6.52844885364175,-2.0485075423494,6.52844773605466,
6.796,0.657,1,1,3,1,0.5,6.62668663077056,-1.98576618917286,6.62668554112315,
6.806,0.667,1,1,3,1,0.5,6.72800000756979,-1.92311179824173,6.7279988899827,
6.816,0.677,1,1,3,1,0.5,6.83466075919568,-1.85799636878073,6.83253044262528,
6.826,0.687,1,1,3,1,0.5,6.94319757632911,-1.7944505950436,6.94099383428693,
6.836,0.697,1,1,3,1,0.5,7.05195000395179,-1.73187027219683,7.0519488863647,
6.846,0.707,1,1,3,1,0.5,7.16667864471674,-1.66803238913417,7.16438272967935,
6.856,0.717,1,1,3,1,0.5,7.27962951175869,-1.60480307880789,7.27962842211127,
6.866,0.727,1,1,3,1,0.5,7.39706424996257,-1.54048834461719,7.39706313237548,
6.876,0.737,1,1,3,1,0.5,7.51558525487781,-1.47783775813878,7.51558413729072,
6.886,0.747,1,1,3,1,0.5,7.63844227418303,-1.41474198084325,7.63601291924715,
6.899,0.76,1,1,3,1,0.75,7.79643821530044,-1.33257867768407,7.79643712565303,
6.909,0.77,1,1,3,1,0.75,7.91910043917596,-1.2709541618824,7.91909934952855,
6.919,0.78,1,1,3,1,0.75,8.03988411091268,-1.21083139907569,8.03988302126527,
6.929,0.79,1,1,3,1,0.75,8.16314617171883,-1.15099489688873,8.16314505413175,
6.939,0.8,1,1,3,1,0.75,8.289754986763,-1.09095467254519,8.28726103529334,
6.949,0.81,1,1,3,1,0.75,8.41230550780892,-1.03118801023811,8.41230439022183,
6.959,0.82,1,1,3,1,0.75,8.53753762319684,-0.972240567207336,8.53753650560975,
6.969,0.83,1,1,3,1,0.75,8.66227283142507,-0.91413976624608,8.66227174177766,
6.979,0.84,1,1,3,1,0.75,8.78754026256502,-0.856605209410191,8.7875391729176,
6.989,0.85,1,1,3,1,0.75,8.91660575754941,-0.797749324701726,8.91407612711191,
6.999,0.86,1,1,3,1,0.75,9.04272884130478,-0.740505387075245,9.04021795839071,
7.009,0.87,1,1,3,1,0.75,9.16661834344268,-0.685296459123492,9.16661722585559,
7.019,0.88,1,1,3,1,0.75,9.294348154217,-0.628159204497933,9.29434703662991,
7.029,0.89,1,1,3,1,0.75,9.42624502815306,-0.570257334038615,9.42624393850565,
7.039,0.9,1,1,3,1,0.75,9.55204211175442,-0.516430540010333,9.55204099416733,
7.049,0.91,1,1,3,1,0.75,9.68195359222591,-0.461831944994628,9.67939976602793,
7.059,0.92,1,1,3,1,0.75,9.80956119485199,-0.408155722543597,9.80700938031077,
7.069,0.93,1,1,3,1,0.75,9.93395710363984,-0.355589841492474,9.93395598605275,
7.079,0.94,1,1,3,1,0.75,10.0637853518128,-0.302308760583401,10.0637842342258,
7.089,0.95,1,1,3,1,0.75,10.1910162996501,-0.250899442471564,10.1884672790766,
7.099,0.96,1,1,3,1,0.75,10.320091964677,-0.198650266975164,10.3200908750296,
7.109,0.97,1,1,3,1,0.75,10.452643185854,-0.147933103144169,10.4500264674425,
7.119,0.98,1,1,3,1,0.75,10.5793486442417,-0.100104887969792,10.5793475545943,
7.129,0.99,1,1,3,1,0.75,10.7105694059283,-0.0537022529169917,10.7105683162808,
7.139,1,1,1,3,1,1,10.8541456237435,-0.014850776642561,10.8511470258236,
7.158,0.0190000000000001,2,2,3,1,1,11.1338661331683,-0.00483356416225433,11.1321668699384,
7.165,0.0259999999999998,2,2,3,1,1,11.1619768571109,-0.00487924087792635,11.1619757674634,
7.175,0.0359999999999996,2,2,3,1,1,11.1219002399594,-0.00661897473037243,11.1218991503119,
7.185,0.0460000000000003,2,2,3,1,1,11.0069492831826,-0.0265325140208006,11.0069481655955,
7.195,0.0560000000000001,2,2,3,1,1,10.9206290356815,-0.0659012980759144,10.9206279180944,
7.205,0.0659999999999998,2,2,3,1,1,10.8712018746883,-0.0964339124038816,10.8712007850409,
7.215,0.0759999999999996,2,2,3,1,1,10.8188986312598,-0.130411493591964,10.8188975416124,
7.225,0.0860000000000003,2,2,3,1,1,10.7577768154442,-0.169559991918504,10.7577756978571,
7.235,0.0960000000000001,2,2,3,1,1,10.6893937010318,-0.212961016222835,10.689392555505,
7.245,0.106,2,2,3,1,1,10.6146733369678,-0.260231760330498,10.6146722473204,
7.255,0.116,2,2,3,1,1,10.5336423777044,-0.309790624305606,10.5336412601173,
7.265,0.126,2,2,3,1,1,10.4482050798833,-0.361437229439616,10.4482039622962,
7.275,0.136,2,2,3,1,1,10.3594686090946,-0.414167251437902,10.3594674915075,
7.285,0.146,2,2,3,1,1,10.2670525386929,-0.467951758764684,10.2670514211059,
7.295,0.156,2,2,3,1,1,10.1711920648813,-0.523253977298737,10.1711909472942,
7.305,0.165999999999999,2,2,3,1,1,10.0721519999206,-0.579625014215708,10.0721508823335,
7.315,0.176,2,2,3,1,1,9.96711686253548,-0.637329667806625,9.9691903218627,
7.325,0.186,2,2,3,1,1,9.86465745605528,-0.694999285042286,9.86465636640787,
7.335,0.196,2,2,3,1,1,9.75923102349043,-0.752236605621874,9.75922990590334,
7.345,0.206,2,2,3,1,1,9.65257504954934,-0.80978621263057,9.65257393196225,
7.355,0.216,2,2,3,1,1,9.54130469821393,-0.867728549055755,9.54349989071488,
7.365,0.226,2,2,3,1,1,9.43317197263241,-0.925804129801691,9.43317085504532,
7.375,0.236,2,2,3,1,1,9.32270491495728,-0.983759253285825,9.3227037973702,
7.385,0.246,2,2,3,1,1,9.20954181812704,-1.04230561293662,9.20954072847962,
7.399,0.26,2,2,3,1,1.25,9.04977788217366,-1.12461762502789,9.04977679252625,
7.409,0.27,2,2,3,1,1.25,8.93553894013166,-1.18178265634924,8.93553782254457,
7.419,0.28,2,2,3,1,1.25,8.81843358278274,-1.23977264389396,8.82075721397996,
7.429,0.29,2,2,3,1,1.25,8.7043675314635,-1.29825701937079,8.70436644181609,
7.439,0.3,2,2,3,1,1.25,8.58810402452946,-1.35579960886389,8.58810290694237,
7.449,0.31,2,2,3,1,1.25,8.47073240205646,-1.41353825107217,8.47073128446936,
7.459,0.32,2,2,3,1,1.25,8.35349880158901,-1.47082386072725,8.35349768400192,
7.469,0.33,2,2,3,1,1.25,8.23523442260921,-1.52858509216458,8.2352333329618,
7.479,0.34,2,2,3,1,1.25,8.11658528633416,-1.58608848694712,8.11658419668674,
7.489,0.35,2,2,3,1,1.25,7.99543228000402,-1.64418208878487,7.99782721325755,
7.499,0.36,2,2,3,1,1.25,7.87556491792202,-1.70168994460255,7.87556380033493,
7.509,0.37,2,2,3,1,1.25,7.75551253929734,-1.75803428981453,7.75794077664614,
7.519,0.38,2,2,3,1,1.25,7.63430879451334,-1.81669234763831,7.63430770486593,
7.529,0.39,2,2,3,1,1.25,7.5160401687026,-1.87319940887392,7.51603905111551,
7.539,0.4,2,2,3,1,1.25,7.39473374560475,-1.92999791353941,7.39473262801766,
7.549,0.41,2,2,3,1,1.25,7.27001527324319,-1.98759478982538,7.27246161550283,
7.559,0.42,2,2,3,1,1.25,7.14831098914146,-2.04410460311919,7.15074241161346,
7.569,0.43,2,2,3,1,1.25,7.02877809293568,-2.10069970227778,7.02877700328827,
7.579,0.44,2,2,3,1,1.25,6.90447770990431,-2.15717867948115,6.90691636875272,
7.589,0.45,2,2,3,1,1.25,6.78444986231625,-2.21341467928141,6.78444871678948,
7.599,0.46,2,2,3,1,1.25,6.66261526755989,-2.26894416846335,6.66261417791247,
7.609,0.47,2,2,3,1,1.25,6.54195140115917,-2.32434876728803,6.54195031151176,
7.619,0.48,2,2,3,1,1.25,6.41928138211369,-2.37948014866561,6.41928026452661,
7.629,0.49,2,2,3,1,1.25,6.29660404287279,-2.43607095442712,6.29660295322537,
7.639,0.5,2,2,3,1,1.5,6.16962298750877,-2.49171271454543,6.17211716249585,
7.649,0.51,2,2,3,1,1.5,6.05432574637234,-2.53958335611969,6.05432465672493,
7.655,0.516,2,2,3,1,1.5,6.00375526584685,-2.54884793423116,6.00498771294951,
7.665,0.526,2,2,3,1,1.5,5.96511295996606,-2.53742102533579,5.96511187031865,
7.674,0.535,2,2,3,1,1.5,5.95519638620317,-2.51459028106183,5.95519529655576,
7.684,0.545,2,2,3,1,1.5,5.95575126819312,-2.48744303826243,5.95567798241973,
7.694,0.555,2,2,3,1,1.5,5.96631998196244,-2.45764155872166,5.96590401604772,
7.704,0.565,2,2,3,1,1.5,5.99570665508509,-2.41692390292883,5.995705537498,
7.714,0.575,2,2,3,1,1.5,6.03867745958269,-2.37177203409374,6.03867636993527,
7.724,0.585,2,2,3,1,1.5,6.08817894011736,-2.32476477511227,6.08817782253027,
7.734,0.595,2,2,3,1,1.5,6.14629458636045,-2.27517198305577,6.14629346877336,
7.744,0.605,2,2,3,1,1.5,6.21418425813317,-2.22146709915251,6.21418314054608,
7.754,0.615,2,2,3,1,1.5,6.28759142942727,-2.16629536356777,6.28759033977985,
7.764,0.625,2,2,3,1,1.5,6.36782786808908,-2.10961261298507,6.36782677844167,
7.774,0.635,2,2,3,1,1.5,6.45341034047306,-2.05067271832377,6.45340925082564,
7.784,0.645,2,2,3,1,1.5,6.54385811649263,-1.99119986966252,6.54385702684522,
7.794,0.655,2,2,3,1,1.5,6.63841956295073,-1.93049280438572,6.63841847330332,
7.804,0.665,2,2,3,1,1.5,6.7373498249799,-1.86922268941998,6.73734873533249,
7.814,0.675,2,2,3,1,1.5,6.83882631361485,-1.80774493142962,6.83882519602776,
7.824,0.685,2,2,3,1,1.5,6.94449283182621,-1.74518373329192,6.94449171423912,
7.834,0.695,2,2,3,1,1.5,7.05284985713661,-1.68260974809527,7.05284876748919,
7.844,0.705,2,2,3,1,1.5,7.16379767283797,-1.61999775096774,7.16379655525088,
7.854,0.715,2,2,3,1,1.5,7.27632656693459,-1.55789321754128,7.2763254493475,
7.864,0.725,2,2,3,1,1.5,7.39122158847749,-1.49534610100091,7.39122049883008,
7.874,0.735,2,2,3,1,1.5,7.50859874300659,-1.43226345535368,7.50859765335917,
7.884,0.745,2,2,3,1,1.5,7.62777063064277,-1.3699562754482,7.62776954099536,
7.899,0.76,2,2,3,1,1.75,7.80743661336601,-1.27738176379353,7.8074355237186,
7.909,0.77,2,2,3,1,1.75,7.93130767531693,-1.21691222768277,7.92886784300208,
7.919,0.78,2,2,3,1,1.75,8.05366918444633,-1.15654714405537,8.05122122168541,
7.929,0.79,2,2,3,1,1.75,8.17607400007546,-1.09667018055916,8.17362137138844,
7.939,0.8,2,2,3,1,1.75,8.29970036633313,-1.03684636764228,8.29720884561539,
7.949,0.81,2,2,3,1,1.75,8.42204477638006,-0.977536621503532,8.42204365879297,
7.959,0.82,2,2,3,1,1.75,8.54554379358888,-0.919921225868165,8.54554267600179,
7.969,0.83,2,2,3,1,1.75,8.66995076648891,-0.862004836089909,8.6699496768415,
7.979,0.84,2,2,3,1,1.75,8.79515485838056,-0.804112632758915,8.79515374079347,
7.989,0.85,2,2,3,1,1.75,8.9211549796164,-0.747078084386885,8.92115386202931,
7.999,0.86,2,2,3,1,1.75,9.04963119886816,-0.6902672117576,9.04711877927184,
8.009,0.87,2,2,3,1,1.75,9.17337644845247,-0.634462330490351,9.17337533086538,
8.019,0.88,2,2,3,1,1.75,9.30435391142964,-0.576328989118338,9.30174708366394,
8.029,0.89,2,2,3,1,1.75,9.43120284006,-0.52117524202913,9.43120172247291,
8.039,0.899999999999999,2,2,3,1,1.75,9.5610080100596,-0.467195939272642,9.558464884758,
8.049,0.909999999999999,2,2,3,1,1.75,9.68850407749414,-0.412496719509363,9.68595989048481,
8.059,0.920000000000001,2,2,3,1,1.75,9.81539924629033,-0.359730403870344,9.81286805123091,
8.069,0.930000000000001,2,2,3,1,1.75,9.94166985154152,-0.308397621847689,9.93915148079395,
8.079,0.94,2,2,3,1,1.75,10.0660637486726,-0.258141332305968,10.0660626590252,
8.089,0.95,2,2,3,1,1.75,10.198208251968,-0.204873504117131,10.1955542340875,
8.099,0.96,2,2,3,1,1.75,10.3294042870402,-0.153633551672101,10.3294031694531,
8.109,0.97,2,2,3,1,1.75,10.4602808039635,-0.104932161048055,10.4602797143161,
8.119,0.98,2,2,3,1,1.75,10.5914884619415,-0.0589529983699322,10.5914873443544,
8.129,0.989999999999999,2,2,3,1,1.75,10.7339484896511,-0.0181049248203635,10.7309959642589,
8.139,0.999999999999999,2,2,3,1,2,10.8995690569282,0.000844709575176239,10.8957912772894,
8.152,0.0130000000000017,3,3,3,1,2,11.1703593470156,-0.0038702879101038,11.1703582294285,
8.162,0.0230000000000015,3,3,3,1,2,11.2946559861302,-0.00679779797792435,11.2946548685431,
8.165,0.0260000000000016,3,3,3,1,2,11.3007323350757,-0.00590282958000898,11.3007312454283,
8.175,0.0360000000000014,3,3,3,1,2,11.2394662667066,-0.00500895548611879,11.2394651770592,
8.185,0.0460000000000012,3,3,3,1,2,11.0684435348958,-0.00484353397041559,11.0684424452484,
8.195,0.0560000000000009,3,3,3,1,2,10.8970525860786,-0.0412215106189251,10.8970514684916,
8.205,0.0660000000000007,3,3,3,1,2,10.8312793169171,-0.0761666567996144,10.8312782272696,
8.215,0.0760000000000005,3,3,3,1,2,10.7935345452279,-0.100429682061076,10.7935334555805,
8.225,0.0860000000000003,3,3,3,1,2,10.7413582596928,-0.134479715488851,10.7413571700454,
8.235,0.0960000000000001,3,3,3,1,2,10.6741330213845,-0.176515989005566,10.6741319037974,
8.245,0.106000000000002,3,3,3,1,2,10.6007121596485,-0.222550053149462,10.6007110700011,
8.255,0.116000000000001,3,3,3,1,2,10.5241484753788,-0.270198355428874,10.5241473577917,
8.265,0.126000000000001,3,3,3,1,2,10.4396050516516,-0.321011086925864,10.4396039620042,
8.275,0.136000000000001,3,3,3,1,2,10.3496228065342,-0.374821936711669,10.3496217168868,
8.285,0.146000000000001,3,3,3,1,2,10.2593949157745,-0.427373675629497,10.2593938261271,
8.295,0.156000000000001,3,3,3,1,2,10.1635822188109,-0.482522482052445,10.1635811291635,
8.305,0.166,3,3,3,1,2,10.0648588780314,-0.538678569719195,10.064857788384,
8.315,0.176,3,3,3,1,2,9.96140638366342,-0.596614954993129,9.96140526607632,
8.325,0.186,3,3,3,1,2,9.85845224931836,-0.653545018285513,9.85845113173127,
8.335,0.196000000000002,3,3,3,1,2,9.75254966877401,-0.710987676866353,9.75254857912659,
8.345,0.206000000000001,3,3,3,1,2,9.64599008671939,-0.768636139109731,9.64598899707198,
8.355,0.216000000000001,3,3,3,1,2,9.53483180142939,-0.827874108217657,9.53483071178198,
8.365,0.226000000000001,3,3,3,1,2,9.42561096511781,-0.885517071001232,9.4256098754704,
8.375,0.236000000000001,3,3,3,1,2,9.31444991379976,-0.943955746479332,9.31444879621267,
8.385,0.246,3,3,3,1,2,9.20167151838541,-1.00233172997832,9.20167040079832,
8.399,0.260000000000002,3,3,3,1,2.25,9.04016311280429,-1.08548195101321,9.04016202315688,
8.409,0.270000000000001,3,3,3,1,2.25,8.92557232640684,-1.14357803948224,8.92557123675942,
8.419,0.280000000000001,3,3,3,1,2.25,8.80765621550381,-1.20285313110799,8.80999121814966,
8.429,0.290000000000001,3,3,3,1,2.25,8.69232522323727,-1.26081041526049,8.69232410565019,
8.439,0.300000000000001,3,3,3,1,2.25,8.57259068638086,-1.31911314558238,8.5749495215714,
8.449,0.310000000000001,3,3,3,1,2.25,8.45708389766514,-1.37726651038975,8.45708280801773,
8.459,0.32,3,3,3,1,2.25,8.33894865587354,-1.43561270087957,8.33894753828645,
8.469,0.33,3,3,3,1,2.25,8.21940869092941,-1.49393632076681,8.21940757334232,
8.479,0.340000000000002,3,3,3,1,2.25,8.09947147965431,-1.55252480413765,8.09947036206722,
8.489,0.350000000000001,3,3,3,1,2.25,7.97926364466548,-1.61048181820661,7.97926252707839,
8.499,0.360000000000001,3,3,3,1,2.25,7.85648086108267,-1.66856676805764,7.85891856998205,
8.509,0.370000000000001,3,3,3,1,2.25,7.73693413473666,-1.7276204098016,7.73693304508924,
8.519,0.380000000000001,3,3,3,1,2.25,7.61468720622361,-1.78593603894114,7.61468611657619,
8.529,0.390000000000001,3,3,3,1,2.25,7.49322339892387,-1.84361642692238,7.49322228133678,
8.539,0.4,3,3,3,1,2.25,7.37047081813216,-1.90258409827948,7.37046970054507,
8.549,0.41,3,3,3,1,2.25,7.2472002916038,-1.96037534158677,7.24719917401671,
8.559,0.420000000000002,3,3,3,1,2.25,7.12209155783057,-2.01828935649246,7.12452560663223,
8.569,0.430000000000001,3,3,3,1,2.25,6.99928988702595,-2.07647345494479,7.00176503509283,
8.579,0.440000000000001,3,3,3,1,2.25,6.87719084322452,-2.13414923753589,6.87718972563744,
8.589,0.450000000000001,3,3,3,1,2.25,6.75652706064284,-2.18980425968766,6.75652597099543,
8.599,0.460000000000001,3,3,3,1,2.25,6.6326264385134,-2.24695375189185,6.63504922762513,
