"Total Time (s)","Cycle Elapsed Time (s)","Total Cycles","Elapsed Cycles","Step","Loop 1","Total Cycle Count(Linear Waveform)","Position(Linear:Position) (mm)","Force(Linear:Load) (kN)","Displacement(Linear:Digital Position) (mm)",
997.187,0,992,992,3,1,991,11.430604448542,-0.00141798052936792,11.4306053705513,
997.197,0.00999999999999091,992,992,3,1,991,11.5605345088989,-0.00563214998692274,11.5605354309082,
997.203,0.0159999999999627,992,992,3,1,991,11.5876106265932,-0.00694066286087036,11.5876115486026,
997.213,0.0259999999999536,992,992,3,1,991,11.5050911530852,-0.00760836992412806,11.5050921030343,
997.223,0.0360000000000582,992,992,3,1,991,11.2695183232427,-0.00211779493838549,11.2695192731917,
997.232,0.0449999999999591,992,992,3,1,991,11.029451424256,0.00305369962006807,11.0294523462653,
997.242,0.0550000000000637,992,992,3,1,991,10.8631635736674,-0.00161639414727688,10.8631644956768,
997.252,0.0650000000000546,992,992,3,1,991,10.8193819597363,-0.00976542942225933,10.8193829096854,
997.262,0.0750000000000455,992,992,3,1,991,10.8029553294182,-0.0161999044939876,10.8029562793672,
997.272,0.0850000000000364,992,992,3,1,991,10.7218755874783,-0.0304535124450922,10.7218765094876,
997.282,0.0950000000000273,992,992,3,1,991,10.5867815762758,-0.0632118945941329,10.5867825262249,
997.292,0.105000000000018,992,992,3,1,991,10.4660588968545,-0.100111626088619,10.4660598188639,
997.302,0.115000000000009,992,992,3,1,991,10.3754103183746,-0.130894030444324,10.3754112683237,
997.312,0.125,992,992,3,1,991,10.2902456838638,-0.16078376211226,10.2902466058731,
997.322,0.134999999999991,992,992,3,1,991,10.1909721828997,-0.195971517823637,10.1909731328487,
997.332,0.144999999999982,992,992,3,1,991,10.0830845721066,-0.234565841965377,10.0830855220556,
997.342,0.154999999999973,992,992,3,1,991,9.97503549791873,-0.272980821318924,9.97503641992807,
997.352,0.164999999999964,992,992,3,1,991,9.8681886959821,-0.31069764867425,9.86818961799145,
997.362,0.174999999999955,992,992,3,1,991,9.75935300812125,-0.349407289177179,9.75935395807028,
997.372,0.185000000000059,992,992,3,1,991,9.64907499030232,-0.388097651302814,9.64907594025135,
997.382,0.19500000000005,992,992,3,1,991,9.5387692283839,-0.426816595718265,9.53877015039325,
997.392,0.205000000000041,992,992,3,1,991,9.42872551269829,-0.465355981141329,9.42872643470764,
997.402,0.215000000000032,992,992,3,1,991,9.31582915596664,-0.50473480951041,9.31583007797599,
997.412,0.225000000000023,992,992,3,1,991,9.20023955404758,-0.544947450980544,9.20024050399661,
997.422,0.235000000000014,992,992,3,1,991,9.08314039930701,-0.586061524227262,9.08314134925604,
997.432,0.245000000000005,992,992,3,1,991,8.96686884574592,-0.626290249638259,8.96686976775527,
997.447,0.259999999999991,992,992,3,1,991.25,8.79030081443488,-0.68729339633137,8.79030173644423,
997.457,0.269999999999982,992,992,3,1,991.25,8.67009175010025,-0.728869549930096,8.6700926721096,
997.467,0.279999999999973,992,992,3,1,991.25,8.54983641766012,-0.769930514506996,8.54983733966947,
997.477,0.289999999999964,992,992,3,1,991.25,8.42899938113987,-0.811567581258714,8.42900030314922,
997.487,0.299999999999955,992,992,3,1,991.25,8.30947514623404,-0.853017964400351,8.30947609618306,
997.497,0.310000000000059,992,992,3,1,991.25,8.18408447317779,-0.895801167935133,8.18408539518714,
997.507,0.32000000000005,992,992,3,1,991.25,8.06142560206354,-0.938048143871129,8.06142652407289,
997.517,0.330000000000041,992,992,3,1,991.25,7.93851848691702,-0.979960770346224,7.93851943686605,
997.527,0.340000000000032,992,992,3,1,991.25,7.81193112954497,-1.02344805374742,7.811932079494,
997.537,0.350000000000023,992,992,3,1,991.25,7.68417069688439,-1.06756966095418,7.68417164683342,
997.547,0.360000000000014,992,992,3,1,991.25,7.55619800649583,-1.1111609544605,7.55619892850518,
997.557,0.370000000000005,992,992,3,1,991.25,7.43088657036424,-1.15391012746841,7.43088752031326,
997.567,0.379999999999995,992,992,3,1,991.25,7.30475817807019,-1.19691868778318,7.30475910007954,
997.577,0.389999999999986,992,992,3,1,991.25,7.17644054442644,-1.24074432998896,7.17644149437547,
997.587,0.399999999999977,992,992,3,1,991.25,7.04819018952549,-1.28469573333859,7.04819111153483,
997.597,0.409999999999968,992,992,3,1,991.25,6.92188773304224,-1.32791634183377,6.92188868299127,
997.607,0.419999999999959,992,992,3,1,991.25,6.79410550743341,-1.3720066845417,6.79410645738244,
997.617,0.430000000000064,992,992,3,1,991.25,6.66231404989958,-1.41671154648066,6.6623149998486,
997.627,0.440000000000055,992,992,3,1,991.25,6.53138757683337,-1.46214849315584,6.53138849884272,
997.637,0.450000000000045,992,992,3,1,991.25,6.40119843184948,-1.50604017544538,6.40119938179851,
997.647,0.460000000000036,992,992,3,1,991.25,6.27243823371828,-1.55064056627452,6.27243915572762,
997.657,0.470000000000027,992,992,3,1,991.25,6.14061844535172,-1.59447371494025,6.14322245121002,
997.667,0.480000000000018,992,992,3,1,991.25,6.01058618165553,-1.6399592673406,6.01058710366488,
997.677,0.490000000000009,992,992,3,1,991.25,5.87684171274304,-1.68582317885011,5.87684266269207,
997.687,0.5,992,992,3,1,991.5,5.74476554989815,-1.73106516245753,5.74476649984717,
997.697,0.509999999999991,992,992,3,1,991.5,5.61991495080292,-1.76721894182265,5.61991587281227,
997.701,0.51400000000001,992,992,3,1,991.5,5.59382328763604,-1.77092387340963,5.59382423758507,
997.704,0.517000000000053,992,992,3,1,991.5,5.58674993924796,-1.76878349389881,5.58675086125731,
997.714,0.527000000000044,992,992,3,1,991.5,5.62252823263407,-1.7386091593653,5.62252918258309,
997.724,0.537000000000035,992,992,3,1,991.5,5.71434538811445,-1.6912758583203,5.71434633806348,
997.734,0.547000000000025,992,992,3,1,991.5,5.80879856832325,-1.64536555763334,5.8087994903326,
997.744,0.557000000000016,992,992,3,1,991.5,5.88812733069062,-1.6092446167022,5.886623673141,
997.754,0.567000000000007,992,992,3,1,991.5,5.9660794492811,-1.57351539935917,5.96608037129045,
997.764,0.576999999999998,992,992,3,1,991.5,6.04992552660406,-1.53753145132214,6.04992644861341,
997.774,0.586999999999989,992,992,3,1,991.5,6.13894782029092,-1.49979761335999,6.13894874230027,
997.784,0.59699999999998,992,992,3,1,991.5,6.23202821239829,-1.46110697183758,6.23202916234732,
997.794,0.606999999999971,992,992,3,1,991.5,6.3291025813669,-1.42161436378956,6.32910350337625,
997.804,0.616999999999962,992,992,3,1,991.5,6.42424897290766,-1.38409243430942,6.42424989491701,
997.814,0.626999999999953,992,992,3,1,991.5,6.52723227627575,-1.34418232366443,6.5272331982851,
997.824,0.637000000000057,992,992,3,1,991.5,6.62893647328019,-1.30507314577699,6.62893742322922,
997.834,0.647000000000048,992,992,3,1,991.5,6.73367545008659,-1.26500635873526,6.73367640003562,
997.844,0.657000000000039,992,992,3,1,991.5,6.84185564517975,-1.22448741458356,6.84185659512877,
997.854,0.66700000000003,992,992,3,1,991.5,6.95271796546876,-1.18320043198764,6.95052322000265,
997.864,0.677000000000021,992,992,3,1,991.5,7.06104825250804,-1.14359933882952,7.06104917451739,
997.874,0.687000000000012,992,992,3,1,991.5,7.17403437942266,-1.10237665008754,7.17403532937169,
997.884,0.697000000000003,992,992,3,1,991.5,7.28977714665234,-1.06091558933258,7.28977806866169,
997.894,0.706999999999994,992,992,3,1,991.5,7.40536876022816,-1.01913505233824,7.40536971017718,
997.904,0.716999999999985,992,992,3,1,991.5,7.52440933138132,-0.97759251948446,7.52441028133035,
997.914,0.726999999999975,992,992,3,1,991.5,7.642039982602,-0.935933594591916,7.64204090461135,
997.924,0.736999999999966,992,992,3,1,991.5,7.7614124212414,-0.894560902379453,7.76141334325075,
997.934,0.746999999999957,992,992,3,1,991.5,7.88262457586825,-0.852368846535683,7.8826254978776,
997.947,0.759999999999991,992,992,3,1,991.75,8.04266550578177,-0.798067483119667,8.04266642779112,
997.957,0.769999999999982,992,992,3,1,991.75,8.16414652392268,-0.756546813063324,8.16414747387171,
997.967,0.779999999999973,992,992,3,1,991.75,8.28569275327027,-0.71608669590205,8.28569367527962,
997.977,0.789999999999964,992,992,3,1,991.75,8.40999942272902,-0.67391371820122,8.41000037267804,
997.987,0.799999999999955,992,992,3,1,991.75,8.53698799386621,-0.631666085682809,8.53698894381523,
997.997,0.810000000000059,992,992,3,1,991.75,8.66385100409389,-0.589437736198306,8.66385195404291,
998.007,0.82000000000005,992,992,3,1,991.75,8.79139537923038,-0.54763738065958,8.79139630123973,
998.017,0.830000000000041,992,992,3,1,991.75,8.91858791001141,-0.505984178744257,8.91858883202076,
998.027,0.840000000000032,992,992,3,1,991.75,9.04680652543902,-0.464304918423295,9.04680747538805,
998.037,0.850000000000023,992,992,3,1,991.75,9.17436294257641,-0.422656028531492,9.17436389252543,
998.047,0.860000000000014,992,992,3,1,991.75,9.30278057232499,-0.381479179486632,9.30278152227402,
998.057,0.870000000000005,992,992,3,1,991.75,9.4329156819731,-0.339445900171995,9.43291660398245,
998.067,0.879999999999995,992,992,3,1,991.75,9.56178688444197,-0.29872621409595,9.56178780645132,
998.077,0.889999999999986,992,992,3,1,991.75,9.68995973467827,-0.258049154654145,9.68996068462729,
998.087,0.899999999999977,992,992,3,1,991.75,9.82265219092369,-0.216006566770375,9.82265314087272,
998.097,0.909999999999968,992,992,3,1,991.75,9.96160129085183,-0.172682548873127,9.96160224080086,
998.107,0.919999999999959,992,992,3,1,991.75,10.0950951408595,-0.132637531496584,10.0950960628688,
998.117,0.930000000000064,992,992,3,1,991.75,10.231078946963,-0.0929195201024413,10.2310798689723,
998.127,0.940000000000055,992,992,3,1,991.75,10.370863834396,-0.0555518222972751,10.3708647564054,
998.137,0.950000000000045,992,992,3,1,991.75,10.5221996549517,-0.0230841571465135,10.522200576961,
998.147,0.960000000000036,992,992,3,1,991.75,10.6854728981853,-0.00392952002584934,10.6854738481343,
998.157,0.970000000000027,992,992,3,1,991.75,10.8740977104753,2.57184728980064E-05,10.8740986324847,
998.167,0.980000000000018,992,992,3,1,991.75,11.07626167126,-0.00134308822453022,11.0762625932693,
998.177,0.990000000000009,992,992,3,1,991.75,11.2717938702554,-0.00232495833188295,11.2682847864926,
998.187,1,992,992,3,1,992,11.4310682751238,-0.00160160940140486,11.4281560108066,
998.197,0.00999999999999091,993,993,3,1,992,11.5603517275304,-0.0056455610319972,11.5603526495397,
998.203,0.0159999999999627,993,993,3,1,992,11.5864917542785,-0.00668543856590986,11.5864926762879,
998.213,0.0259999999999536,993,993,3,1,992,11.5051853656769,-0.00763898715376854,11.5051863156259,
998.223,0.0360000000000582,993,993,3,1,992,11.2696534674615,-0.00196050852537155,11.2696543894708,
998.233,0.0460000000000491,993,993,3,1,992,11.0065319482237,0.00317268073558807,11.0065328702331,
998.234,0.0470000000000255,993,993,3,1,992,10.9847234934568,0.00332640949636698,10.9889855794609,
998.244,0.0570000000000164,993,993,3,1,992,10.8438891079277,-0.00352493952959776,10.843890029937,
998.254,0.0670000000000073,993,993,3,1,992,10.8179919328541,-0.0109568890184164,10.8179928548634,
998.264,0.0769999999999982,993,993,3,1,992,10.7936532888561,-0.0180634250864387,10.7936542108655,
998.274,0.0869999999999891,993,993,3,1,992,10.6969151459634,-0.0356420781463385,10.6969160959125,
998.284,0.09699999999998,993,993,3,1,992,10.5601401999593,-0.0707530649378896,10.5601411499083,
998.294,0.106999999999971,993,993,3,1,992,10.4456420335919,-0.106626306660473,10.4456429556012,
998.304,0.116999999999962,993,993,3,1,992,10.359059991315,-0.136611061170697,10.3590609133244,
998.314,0.126999999999953,993,993,3,1,992,10.2709323819727,-0.167340505868196,10.2727922424674,
998.324,0.137000000000057,993,993,3,1,992,10.1698825601488,-0.203538173809648,10.1698834821582,
998.334,0.147000000000048,993,993,3,1,992,10.0613424461335,-0.241858335211873,10.0613433681428,
998.344,0.157000000000039,993,993,3,1,992,9.95378228835762,-0.280355550348759,9.95378321036696,
998.354,0.16700000000003,993,993,3,1,992,9.84627742320299,-0.318237598985434,9.84627837315202,
998.364,0.177000000000021,993,993,3,1,992,9.73752812482416,-0.357001763768494,9.73752904683352,
998.374,0.187000000000012,993,993,3,1,992,9.62646382860839,-0.39592417422682,9.62646475061774,
998.384,0.197000000000003,993,993,3,1,992,9.5171198900789,-0.434565311297774,9.51712081208825,
998.394,0.206999999999994,993,993,3,1,992,9.4057984650135,-0.473322346806526,9.40579941496253,
998.404,0.216999999999985,993,993,3,1,992,9.29276897571981,-0.512839932925999,9.29276989772916,
998.414,0.226999999999975,993,993,3,1,992,9.17668338865042,-0.552935805171728,9.17668433859944,
998.424,0.236999999999966,993,993,3,1,992,9.0597188193351,-0.593797992914915,9.05971974134445,
998.434,0.246999999999957,993,993,3,1,992,8.94340647384524,-0.634133378043771,8.9457274787128,
998.447,0.259999999999991,993,993,3,1,992.25,8.78962548449636,-0.687567428685725,8.78962643444538,
998.457,0.269999999999982,993,993,3,1,992.25,8.67227995768189,-0.727921109646559,8.67228090763092,
998.467,0.279999999999973,993,993,3,1,992.25,8.55062691494823,-0.769933923147619,8.55062786489725,
998.477,0.289999999999964,993,993,3,1,992.25,8.42964299954474,-0.81149990670383,8.42964392155409,
998.487,0.299999999999955,993,993,3,1,992.25,8.30692847259343,-0.853572185151279,8.30692939460278,
998.497,0.310000000000059,993,993,3,1,992.25,8.18577253259718,-0.895126750692725,8.18577345460653,
998.507,0.32000000000005,993,993,3,1,992.25,8.06032880209386,-0.938123082742095,8.06277757510543,
998.517,0.330000000000041,993,993,3,1,992.25,7.93826314620674,-0.98007086198777,7.93826406821609,
998.527,0.340000000000032,993,993,3,1,992.25,7.81174566596746,-1.02354971691966,7.81174661591649,
998.537,0.350000000000023,993,993,3,1,992.25,7.68408335745335,-1.0672340542078,7.68408430740237,
998.547,0.360000000000014,993,993,3,1,992.25,7.55634259432554,-1.1108769569546,7.55634354427457,
998.557,0.370000000000005,993,993,3,1,992.25,7.43395532481372,-1.15304396953434,7.43395624682307,
998.567,0.379999999999995,993,993,3,1,992.25,7.30423601344228,-1.1972602782771,7.3042369633913,
998.577,0.389999999999986,993,993,3,1,992.25,7.1768849529326,-1.24064564239234,7.17688590288162,
998.587,0.399999999999977,993,993,3,1,992.25,7.04913603141904,-1.2846764922142,7.04913698136806,
998.597,0.409999999999968,993,993,3,1,992.25,6.92259748466313,-1.32769480813295,6.92259840667248,
998.607,0.419999999999959,993,993,3,1,992.25,6.79409723728895,-1.37206578161567,6.79409818723798,
998.617,0.430000000000064,993,993,3,1,992.25,6.66248635388911,-1.41671017743647,6.66248727589846,
998.627,0.440000000000055,993,993,3,1,992.25,6.5332955494523,-1.46103943698108,6.53329649940133,
998.637,0.450000000000045,993,993,3,1,992.25,6.40219165943563,-1.50573493447155,6.40219258144498,
998.647,0.460000000000036,993,993,3,1,992.25,6.27279647625983,-1.55031783506274,6.27279739826918,
998.657,0.470000000000027,993,993,3,1,992.25,6.14186092279851,-1.59486500546336,6.14186184480786,
998.667,0.480000000000018,993,993,3,1,992.25,6.00746448151767,-1.64003511425108,6.0100955888629,
998.677,0.490000000000009,993,993,3,1,992.25,5.87657709605992,-1.68560155201703,5.87657801806927,
998.687,0.5,993,993,3,1,992.5,5.74376600794494,-1.73051794525236,5.74376692995429,
998.697,0.509999999999991,993,993,3,1,992.5,5.61995565891266,-1.76679477561265,5.61995660886168,
998.701,0.51400000000001,993,993,3,1,992.5,5.59290169738233,-1.7705639405176,5.59290261939168,
998.704,0.517000000000053,993,993,3,1,992.5,5.58743895962834,-1.76860926207155,5.58743990957737,
998.714,0.527000000000044,993,993,3,1,992.5,5.62083687633276,-1.73932163976133,5.62083782628179,
998.724,0.537000000000035,993,993,3,1,992.5,5.71490468457341,-1.69038908556104,5.71490563452244,
998.734,0.547000000000025,993,993,3,1,992.5,5.8099745772779,-1.64557271171361,5.80997552722692,
998.744,0.557000000000016,993,993,3,1,992.5,5.88757026940584,-1.60884273704141,5.88757121935487,
998.754,0.567000000000007,993,993,3,1,992.5,5.96577920950949,-1.57372722867876,5.9641813673079,
998.764,0.576999999999998,993,993,3,1,992.5,6.04975031688809,-1.53722104616463,6.04975126683712,
998.774,0.586999999999989,993,993,3,1,992.5,6.13874078728259,-1.49949319660664,6.13874170929194,
998.784,0.59699999999998,993,993,3,1,992.5,6.23149576596916,-1.46118908189237,6.23149668797851,
998.794,0.606999999999971,993,993,3,1,992.5,6.32858172990382,-1.42219856381416,6.32858265191317,
998.804,0.616999999999962,993,993,3,1,992.5,6.4267610013485,-1.38303109910339,6.4247690141201,
998.814,0.626999999999953,993,993,3,1,992.5,6.52706111781299,-1.34407438337803,6.52706203982234,
998.824,0.637000000000057,993,993,3,1,992.5,6.62868462502956,-1.30491107236594,6.62868557497859,
998.834,0.647000000000048,993,993,3,1,992.5,6.73063882626593,-1.26567780040205,6.73063974827528,
998.844,0.657000000000039,993,993,3,1,992.5,6.84172064065933,-1.22381649911404,6.84172159060836,
998.854,0.66700000000003,993,993,3,1,992.5,6.95300390012562,-1.18319311179221,6.95300482213497,
998.864,0.677000000000021,993,993,3,1,992.5,7.06349425949156,-1.142503535375,7.06349518150091,
998.874,0.687000000000012,993,993,3,1,992.5,7.17386570759118,-1.10230043530464,7.17386662960052,
998.884,0.697000000000003,993,993,3,1,992.5,7.28969838470221,-1.06082510668784,7.28738291189074,
998.894,0.706999999999994,993,993,3,1,992.5,7.40527901798487,-1.01936036255211,7.40527996793389,
998.904,0.716999999999985,993,993,3,1,992.5,7.52298306673765,-0.977728730067611,7.52298401668668,
998.914,0.726999999999975,993,993,3,1,992.5,7.64269234612584,-0.935755097307265,7.64269329607487,
998.924,0.736999999999966,993,993,3,1,992.5,7.76106451638043,-0.894559151493013,7.76106543838978,
998.934,0.746999999999957,993,993,3,1,992.5,7.88309027440846,-0.852736104279757,7.88309119641781,
998.947,0.759999999999991,993,993,3,1,992.75,8.04251630790531,-0.798019184730947,8.04251722991467,
998.957,0.769999999999982,993,993,3,1,992.75,8.1648416351527,-0.756473485380411,8.16484255716205,
998.967,0.779999999999973,993,993,3,1,992.75,8.28556532040238,-0.715877283364534,8.28556627035141,
998.977,0.789999999999964,993,993,3,1,992.75,8.41063739731908,-0.673915189690888,8.4106383472681,
998.987,0.799999999999955,993,993,3,1,992.75,8.53699472732842,-0.631448063068092,8.53699564933777,
998.997,0.810000000000059,993,993,3,1,992.75,8.66407376714051,-0.589561215601861,8.66407468914986,
999.007,0.82000000000005,993,993,3,1,992.75,8.79124397411942,-0.547545733861625,8.79124492406845,
999.017,0.830000000000041,993,993,3,1,992.75,8.91628101468086,-0.506591345183551,8.91628196462989,
999.027,0.840000000000032,993,993,3,1,992.75,9.04698637314141,-0.464057000353932,9.04698729515076,
999.037,0.850000000000023,993,993,3,1,992.75,9.17402009479702,-0.422776378691196,9.17402101680636,
999.047,0.860000000000014,993,993,3,1,992.75,9.30222870782018,-0.38126889616251,9.3022296577692,
999.057,0.870000000000005,993,993,3,1,992.75,9.43285088986158,-0.339614828117192,9.43285183981061,
999.067,0.879999999999995,993,993,3,1,992.75,9.56268098205328,-0.298544862307608,9.56268193200231,
999.077,0.889999999999986,993,993,3,1,992.75,9.68952518887818,-0.258134715259075,9.68952611088753,
999.087,0.899999999999977,993,993,3,1,992.75,9.81952920556068,-0.216888338327408,9.81953015550971,
999.097,0.909999999999968,993,993,3,1,992.75,9.95883475989103,-0.173627492040396,9.95883570984006,
999.107,0.919999999999959,993,993,3,1,992.75,10.0977638550103,-0.131875886581838,10.0977648049593,
999.117,0.930000000000064,993,993,3,1,992.75,10.2309271506965,-0.0936826132237911,10.2282289043069,
999.127,0.940000000000055,993,993,3,1,992.75,10.3711485117674,-0.0553624192252755,10.3711494617164,
999.137,0.950000000000045,993,993,3,1,992.75,10.521501051262,-0.023214858956635,10.5215019732714,
999.147,0.960000000000036,993,993,3,1,992.75,10.6855561025441,-0.00418419949710369,10.6855570524931,
999.157,0.970000000000027,993,993,3,1,992.75,10.8737812936306,0.000115782022476196,10.8737822435796,
999.167,0.980000000000018,993,993,3,1,992.75,11.0798908397555,-0.00127138569951057,11.0798917897046,
999.177,0.990000000000009,993,993,3,1,992.75,11.2715112883598,-0.0022082356736064,11.2715122103691,
