"Total Time (s)","Cycle Elapsed Time (s)","Total Cycles","Elapsed Cycles","Step","Loop 1","Total Cycle Count(Linear Waveform)","Position(Linear:Position) (mm)","Force(Linear:Load) (kN)","Displacement(Linear:Digital Position) (mm)",
6.127,0,1,1,3,1,0,11.4630174916238,-0.0200700899586082,11.4631383307278,
6.13,0.00300000000000011,1,1,3,1,0,11.463017296046,-0.0198368960991502,11.4631382189691,
6.131,0.00400000000000045,1,1,3,1,0,11.463018078357,-0.0198813900351524,11.4631389454007,
6.141,0.0140000000000002,1,1,3,1,0,11.4629647973925,-0.0201504165306687,11.4630856364965,
6.151,0.024,1,1,3,1,0,11.4611262828112,-0.0211264844983816,11.4612471498549,
6.161,0.0340000000000007,1,1,3,1,0,11.4495464600623,-0.025745159946382,11.4500270783901,
6.171,0.0440000000000005,1,1,3,1,0,11.4242165721953,-0.0342854950577021,11.424337439239,
6.181,0.0540000000000003,1,1,3,1,0,11.3868337590247,-0.0485933944582939,11.3869545981288,
6.191,0.0640000000000001,1,1,3,1,0,11.3430449645966,-0.0668905256316066,11.3431658037007,
6.201,0.0740000000000007,1,1,3,1,0,11.2944948021322,-0.0902194855734706,11.2946156412363,
6.211,0.0840000000000005,1,1,3,1,0,11.236010575667,-0.120545094832778,11.2373091839254,
6.221,0.0940000000000003,1,1,3,1,0,11.1748002748936,-0.153672369197011,11.1749211139977,
6.231,0.104,1,1,3,1,0,11.1082414258271,-0.191762200556695,11.1083622649312,
6.241,0.114000000000001,1,1,3,1,0,11.028600409627,-0.238259290345013,11.0287212766707,
6.251,0.124000000000001,1,1,3,1,0,10.940873818472,-0.290442598052323,10.9409946575761,
6.261,0.134,1,1,3,1,0,10.8433368243277,-0.348209850490093,10.8434576913714,
6.271,0.144,1,1,3,1,0,10.7374321483076,-0.411168490536511,10.7375530153513,
6.281,0.154,1,1,3,1,0,10.6226052995771,-0.479544387198985,10.6227261945605,
6.291,0.164000000000001,1,1,3,1,0,10.4958883859217,-0.554459667764604,10.4960092529655,
6.301,0.174,1,1,3,1,0,10.3580729383975,-0.635506832040846,10.3581937775016,
6.311,0.184,1,1,3,1,0,10.210329098627,-0.721549172885716,10.2104499936104,
6.321,0.194,1,1,3,1,0,10.0497791357338,-0.814490332268178,10.0499000027776,
6.327,0.2,1,1,3,1,0,9.945645974949,-0.873581063933671,9.94576681405306,
6.337,0.21,1,1,3,1,0,9.77590234950185,-0.964030739851296,9.77923303842545,
6.347,0.220000000000001,1,1,3,1,0,9.63406501337886,-1.03285026736557,9.6367321908474,
6.357,0.23,1,1,3,1,0,9.51540570706129,-1.08785825315863,9.51552657410502,
6.367,0.24,1,1,3,1,0,9.40411750227213,-1.13784477580339,9.40644739195704,
6.377,0.25,1,1,3,1,0.25,9.2930656671524,-1.19117168709636,9.29318653419614,
6.387,0.260000000000001,1,1,3,1,0.25,9.18006973341107,-1.24520113226026,9.18019060045481,
6.397,0.27,1,1,3,1,0.25,9.06609118916094,-1.29954789765179,9.06848631799221,
6.407,0.28,1,1,3,1,0.25,8.95187283866107,-1.35402330663055,8.95199367776513,
6.417,0.29,1,1,3,1,0.25,8.83734567090869,-1.40769707970321,8.83975736796856,
6.427,0.300000000000001,1,1,3,1,0.25,8.72383732348681,-1.46118819713593,8.72395819053054,
6.437,0.310000000000001,1,1,3,1,0.25,8.60734979622066,-1.51555974036455,8.609798848629,
6.447,0.32,1,1,3,1,0.25,8.49083804525435,-1.57031489536166,8.49331459030509,
6.457,0.33,1,1,3,1,0.25,8.37470593862236,-1.6224897839129,8.37712241336703,
6.467,0.340000000000001,1,1,3,1,0.25,8.2580722309649,-1.67697782162577,8.26053271070123,
6.477,0.350000000000001,1,1,3,1,0.25,8.14189055934548,-1.72988576348871,8.14201142638922,
6.487,0.36,1,1,3,1,0.25,8.02597596310079,-1.78314996883273,8.02609680220485,
6.497,0.37,1,1,3,1,0.25,7.90551731362939,-1.83704206719995,7.90563818067312,
6.507,0.380000000000001,1,1,3,1,0.25,7.78801965527236,-1.88958816695958,7.78814049437642,
6.517,0.390000000000001,1,1,3,1,0.25,7.66894351691008,-1.94301954004914,7.66906438395381,
6.527,0.4,1,1,3,1,0.25,7.54924063570797,-1.99681130703539,7.54936147481203,
6.537,0.41,1,1,3,1,0.25,7.42811470292509,-2.05066253896803,7.4282355979085,
6.547,0.42,1,1,3,1,0.25,7.30843842029572,-2.10277806967497,7.30855928733945,
6.557,0.430000000000001,1,1,3,1,0.25,7.18950868584216,-2.15486800763756,7.18962952494621,
6.567,0.44,1,1,3,1,0.25,7.07044126465917,-2.2074754955247,7.0705621317029,
6.577,0.45,1,1,3,1,0.25,6.94545306265354,-2.26246155332774,6.94557392969728,
6.587,0.46,1,1,3,1,0.25,6.82402973994613,-2.31415839400142,6.82415060698986,
6.597,0.470000000000001,1,1,3,1,0.25,6.70352655462921,-2.36575367394835,6.70608026906848,
6.607,0.48,1,1,3,1,0.25,6.58129521645606,-2.41803493350744,6.58141605556011,
6.617,0.49,1,1,3,1,0.25,6.45753554999828,-2.47192877344787,6.45765641704202,
6.627,0.5,1,1,3,1,0.5,6.33470764383674,-2.52345868386328,6.33482851088047,
6.637,0.510000000000001,1,1,3,1,0.5,6.22012261301279,-2.56469703745097,6.22024348005652,
6.639,0.512,1,1,3,1,0.5,6.20387828908861,-2.56694279145449,6.20399912819266,
6.649,0.522,1,1,3,1,0.5,6.17088778875768,-2.54504477139562,6.17100862786174,
6.65,0.523000000000001,1,1,3,1,0.5,6.17070017382502,-2.54069497808814,6.17082104086876,
6.66,0.533,1,1,3,1,0.5,6.17672204039991,-2.50215384177864,6.17684287950397,
6.67,0.543,1,1,3,1,0.5,6.20675574056804,-2.45392560493201,6.2068765796721,
6.68,0.553,1,1,3,1,0.5,6.24891196377575,-2.4037976609543,6.24903280287981,
6.69,0.563000000000001,1,1,3,1,0.5,6.29547156393528,-2.35747477505356,6.29559243097901,
6.7,0.573,1,1,3,1,0.5,6.34803615510464,-2.30989284347743,6.34711425751448,
6.71,0.583,1,1,3,1,0.5,6.40062242746353,-2.26449297275394,6.39963308349252,
6.72,0.593,1,1,3,1,0.5,6.46122654899955,-2.21631633583456,6.46134741604328,
6.73,0.603000000000001,1,1,3,1,0.5,6.52620437555015,-2.16753537300974,6.52632521465421,
6.74,0.613,1,1,3,1,0.5,6.59381571225822,-2.11899831425399,6.59253157675266,
6.75,0.623,1,1,3,1,0.5,6.66514073498547,-2.06936861388385,6.66526162996888,
6.76,0.633,1,1,3,1,0.5,6.740856282413,-2.01941252220422,6.7394214682281,
6.77,0.643000000000001,1,1,3,1,0.5,6.81781179271638,-1.96946272160858,6.81793268769979,
6.78,0.653,1,1,3,1,0.5,6.89773094840348,-1.91927327308804,6.89785184338689,
6.79,0.663,1,1,3,1,0.5,6.98140307329595,-1.86758506577462,6.97982350364327,
6.8,0.673,1,1,3,1,0.5,7.06724756397307,-1.81582323275506,7.06736840307713,
6.81,0.683000000000001,1,1,3,1,0.5,7.15520488098264,-1.76373194437474,7.15353637933731,
6.82,0.693000000000001,1,1,3,1,0.5,7.24709515459836,-1.71024748124182,7.24534599110484,
6.83,0.703,1,1,3,1,0.5,7.33949275687337,-1.65834601502866,7.3396136239171,
6.84,0.713,1,1,3,1,0.5,7.43278521113098,-1.60626344382763,7.43290610611439,
6.85,0.723000000000001,1,1,3,1,0.5,7.52911641262472,-1.55303230043501,7.52729063853621,
6.86,0.733000000000001,1,1,3,1,0.5,7.62820411473513,-1.49868415202945,7.62636328116059,
6.87,0.743,1,1,3,1,0.5,7.72838115692139,-1.44487055018544,7.72645505145192,
6.887,0.760000000000001,1,1,3,1,0.75,7.90203955024481,-1.35431042406708,7.90216041728854,
6.897,0.77,1,1,3,1,0.75,8.00440404564142,-1.30152295809239,8.00452491268516,
6.907,0.78,1,1,3,1,0.75,8.10841913335025,-1.24793027993292,8.10853997245431,
6.917,0.79,1,1,3,1,0.75,8.21534989401698,-1.19357365649194,8.21333119645715,
6.927,0.800000000000001,1,1,3,1,0.75,8.32043618895113,-1.14096766337752,8.32055702805519,
6.937,0.810000000000001,1,1,3,1,0.75,8.42977060005069,-1.0875903442502,8.42989146709442,
6.947,0.82,1,1,3,1,0.75,8.53873872198164,-1.0343257850036,8.53663858026266,
6.957,0.83,1,1,3,1,0.75,8.64968427456915,-0.979569079354405,8.64980511367321,
6.967,0.840000000000001,1,1,3,1,0.75,8.76080098561943,-0.926072574220598,8.76092182472348,
6.977,0.850000000000001,1,1,3,1,0.75,8.87271649204195,-0.872555957175791,8.872837331146,
6.987,0.86,1,1,3,1,0.75,8.98452641442418,-0.819839094765484,8.98464728146791,
6.997,0.87,1,1,3,1,0.75,9.09815789200366,-0.765790268778801,9.09827878698706,
7.007,0.880000000000001,1,1,3,1,0.75,9.21277175657451,-0.712280184961855,9.21059707179665,
7.017,0.890000000000001,1,1,3,1,0.75,9.32763749733567,-0.658875210210681,9.32775836437941,
7.027,0.9,1,1,3,1,0.75,9.44394115358591,-0.605113338679075,9.44406202062964,
7.037,0.91,1,1,3,1,0.75,9.56201819702983,-0.551092503592372,9.55977084115148,
7.047,0.92,1,1,3,1,0.75,9.67856395058334,-0.49817306920886,9.6786847896874,
7.057,0.930000000000001,1,1,3,1,0.75,9.79941749945283,-0.444143293425441,9.79953836649656,
7.067,0.94,1,1,3,1,0.75,9.9170237313956,-0.392302102409303,9.91714457049966,
7.077,0.95,1,1,3,1,0.75,10.0351344142109,-0.341690345667303,10.035255253315,
7.087,0.96,1,1,3,1,0.75,10.1540968660265,-0.290453853085637,10.1542177051306,
7.097,0.970000000000001,1,1,3,1,0.75,10.2746085450053,-0.239704474806786,10.2747294120491,
7.107,0.98,1,1,3,1,0.75,10.40054298006,-0.187044995836914,10.3981027007103,
7.117,0.99,1,1,3,1,0.75,10.5271147191525,-0.137130906805396,10.5247566662729,
7.127,1,1,1,3,1,1,10.6505264248699,-0.0918622873723507,10.6481460481882,
7.137,0.0100000000000007,2,2,3,1,1,10.7683391310275,-0.0555780297145247,10.7684599980712,
7.147,0.0200000000000005,2,2,3,1,1,10.8145768940449,-0.0583188002929091,10.8146977610886,
7.157,0.0300000000000002,2,2,3,1,1,10.7919991482049,-0.0890279328450561,10.792119987309,
7.167,0.04,2,2,3,1,1,10.7320993859321,-0.135444910265505,10.7334956154227,
7.177,0.0500000000000007,2,2,3,1,1,10.6740520521998,-0.177113930694759,10.6741729192436,
7.187,0.0600000000000005,2,2,3,1,1,10.6208015419543,-0.214255922473967,10.6220196001232,
7.197,0.0700000000000003,2,2,3,1,1,10.5644799023867,-0.253398562781513,10.5646007694304,
7.207,0.0800000000000001,2,2,3,1,1,10.5006734188646,-0.295296031981707,10.5020458437502,
7.217,0.0900000000000007,2,2,3,1,1,10.436935191974,-0.336348218843341,10.4370560310781,
7.227,0.100000000000001,2,2,3,1,1,10.3662059549242,-0.380469015799463,10.3663267940283,
7.237,0.11,2,2,3,1,1,10.2944953925908,-0.424153921194375,10.2946162596345,
7.247,0.12,2,2,3,1,1,10.2211371436715,-0.468464391306043,10.2212580107152,
7.257,0.130000000000001,2,2,3,1,1,10.1438637357205,-0.514208641834557,10.1439845748246,
7.267,0.140000000000001,2,2,3,1,1,10.0637711584568,-0.560960932634771,10.0638920255005,
7.277,0.15,2,2,3,1,1,9.980897186324,-0.608541453257203,9.98101802542806,
7.287,0.16,2,2,3,1,1,9.89777522161603,-0.655665658414364,9.89789608865976,
7.297,0.17,2,2,3,1,1,9.81184221804142,-0.70350703317672,9.81196308508515,
7.307,0.180000000000001,2,2,3,1,1,9.72461965866387,-0.752203902229667,9.72474049776793,
7.317,0.19,2,2,3,1,1,9.63751506060362,-0.799954072572291,9.63763592764735,
7.327,0.2,2,2,3,1,1,9.54307607375085,-0.850717513822019,9.54507730901241,
7.337,0.21,2,2,3,1,1,9.44972656667232,-0.901938634924591,9.44984743371606,
7.347,0.220000000000001,2,2,3,1,1,9.3561171926558,-0.951749160885811,9.35814829543233,
7.357,0.23,2,2,3,1,1,9.26064443774521,-1.00215408951044,9.26076527684927,
7.367,0.24,2,2,3,1,1,9.16397617198527,-1.05292828287929,9.16409701108933,
7.377,0.25,2,2,3,1,1.25,9.06555033288896,-1.10425544437021,9.06567117199302,
7.387,0.260000000000001,2,2,3,1,1.25,8.96542319096625,-1.15623566322029,8.9655440300703,
7.397,0.27,2,2,3,1,1.25,8.86531460098922,-1.20741548016667,8.86740272864699,
7.407,0.28,2,2,3,1,1.25,8.76482044346631,-1.2586166895926,8.76494133844972,
7.417,0.29,2,2,3,1,1.25,8.66227154619992,-1.3111732667312,8.66239238530397,
7.427,0.300000000000001,2,2,3,1,1.25,8.55795834213495,-1.36250500101596,8.56017641723156,
7.437,0.310000000000001,2,2,3,1,1.25,8.45351711846888,-1.41542898956686,8.45363795757294,
7.447,0.32,2,2,3,1,1.25,8.34777538664639,-1.46901253610849,8.35004428401589,
7.457,0.33,2,2,3,1,1.25,8.24137198738754,-1.52026197407395,8.24361775070429,
7.467,0.340000000000001,2,2,3,1,1.25,8.13445723615587,-1.57384620979428,8.13674613833427,
7.477,0.350000000000001,2,2,3,1,1.25,8.02576225250959,-1.62741127423942,8.02803665399551,
7.487,0.36,2,2,3,1,1.25,7.91693978011608,-1.68055042158812,7.91706064715982,
7.497,0.37,2,2,3,1,1.25,7.8072446398437,-1.73367312643677,7.80736550688744,
7.507,0.380000000000001,2,2,3,1,1.25,7.69692298024893,-1.78717765025795,7.69923772662878,
7.517,0.390000000000001,2,2,3,1,1.25,7.58572239428759,-1.8412457453087,7.58584326133132,
7.527,0.4,2,2,3,1,1.25,7.47288588434458,-1.89549570437521,7.4752458371222,
7.537,0.41,2,2,3,1,1.25,7.36003207974136,-1.9496440840885,7.36015291884542,
7.547,0.420000000000001,2,2,3,1,1.25,7.24774589762092,-2.00214199721813,7.25009864196181,
7.557,0.430000000000001,2,2,3,1,1.25,7.13436531834304,-2.05657628830522,7.1344861574471,
7.567,0.44,2,2,3,1,1.25,7.01899110339582,-2.11142001673579,7.01911194249988,
7.577,0.45,2,2,3,1,1.25,6.903773881495,-2.16507816221565,6.90389474853873,
7.587,0.46,2,2,3,1,1.25,6.78902425803244,-2.21891601569951,6.79144509136677,
7.597,0.470000000000001,2,2,3,1,1.25,6.67272035032511,-2.27301863022149,6.67284121736884,
7.607,0.48,2,2,3,1,1.25,6.5559392888099,-2.32761662919074,6.55606012791395,
7.617,0.49,2,2,3,1,1.25,6.43903199583292,-2.3815419850871,6.43915286287665,
7.627,0.5,2,2,3,1,1.5,6.3231435790658,-2.43423821404576,6.32326444610953,
7.637,0.510000000000001,2,2,3,1,1.5,6.21474514715374,-2.47665163129568,6.21486598625779,
7.64,0.513000000000001,2,2,3,1,1.5,6.19283046573401,-2.47921475209296,6.19295133277774,
7.649,0.522,2,2,3,1,1.5,6.16997553035617,-2.45950745418668,6.1700963973999,
7.659,0.532,2,2,3,1,1.5,6.17853068746626,-2.42266749497503,6.17865152657032,
7.669,0.542000000000001,2,2,3,1,1.5,6.21079903095961,-2.37543106544763,6.21091989800334,
7.679,0.552,2,2,3,1,1.5,6.2535394448787,-2.32846718747169,6.25366028398275,
7.689,0.562,2,2,3,1,1.5,6.30048545077443,-2.28393681813031,6.30060631781816,
7.699,0.572,2,2,3,1,1.5,6.35278740897775,-2.23795747384429,6.35290827602148,
7.709,0.582000000000001,2,2,3,1,1.5,6.4073330629617,-2.19341738149524,6.40745390206575,
7.719,0.592000000000001,2,2,3,1,1.5,6.46810627542436,-2.14706849306822,6.46700989454985,
7.729,0.602,2,2,3,1,1.5,6.53279305435717,-2.09987181704491,6.53291389346123,
7.739,0.612,2,2,3,1,1.5,6.60046985372901,-2.05167573411018,6.60059072077274,
7.749,0.622000000000001,2,2,3,1,1.5,6.67193848639727,-2.00372516177595,6.67057815939188,
7.759,0.632000000000001,2,2,3,1,1.5,6.74547848291695,-1.95513853803277,6.74559937790036,
7.769,0.642,2,2,3,1,1.5,6.8242178298533,-1.9051232887432,6.82433869689703,
7.779,0.652,2,2,3,1,1.5,6.90258912742138,-1.85664632357657,6.90270999446511,
7.789,0.662000000000001,2,2,3,1,1.5,6.98733964003623,-1.80475400295109,6.98746047914028,
7.799,0.672000000000001,2,2,3,1,1.5,7.07032408565283,-1.75549279898405,7.07044495269656,
7.809,0.682,2,2,3,1,1.5,7.15991042554378,-1.70285523403436,7.16003129258752,
7.819,0.692,2,2,3,1,1.5,7.25111547857523,-1.65068333502859,7.25123634561896,
7.829,0.702,2,2,3,1,1.5,7.34349424950778,-1.59886166453362,7.34361508861184,
7.839,0.712000000000001,2,2,3,1,1.5,7.43419890291989,-1.548723699525,7.43431974202394,
7.849,0.722,2,2,3,1,1.5,7.53256517462432,-1.49450984783471,7.53268606960773,
7.859,0.732,2,2,3,1,1.5,7.6310595497489,-1.44071005284786,7.63118041679263,
7.869,0.742,2,2,3,1,1.5,7.73126006126404,-1.38746082782745,7.73138092830777,
7.887,0.760000000000001,2,2,3,1,1.75,7.91299835778773,-1.29281951580197,7.91311925277114,
7.897,0.77,2,2,3,1,1.75,8.01551140844822,-1.23995521571487,8.01563227549195,
7.907,0.78,2,2,3,1,1.75,8.12050248496234,-1.18667589500546,8.11849744990468,
7.917,0.79,2,2,3,1,1.75,8.2270816527307,-1.13294949755073,8.22720251977444,
7.927,0.800000000000001,2,2,3,1,1.75,8.33330486901104,-1.08093644492328,8.3334257081151,
7.937,0.810000000000001,2,2,3,1,1.75,8.44041240401566,-1.02762049995363,8.44053324311972,
7.947,0.82,2,2,3,1,1.75,8.54985086247325,-0.974408159963787,8.54997172951698,
7.957,0.83,2,2,3,1,1.75,8.65779837593436,-0.922075803391635,8.6579192429781,
7.967,0.840000000000001,2,2,3,1,1.75,8.76845458522439,-0.868902299553156,8.76857545226812,
7.977,0.850000000000001,2,2,3,1,1.75,8.87974225915968,-0.816484433598816,8.87986309826374,
7.987,0.86,2,2,3,1,1.75,8.9942658226937,-0.762388990260661,8.99438666179776,
7.997,0.87,2,2,3,1,1.75,9.10802495665848,-0.708888685330749,9.10814579576254,
8.007,0.88,2,2,3,1,1.75,9.22235677018762,-0.655829007737339,9.22247763723135,
8.017,0.89,2,2,3,1,1.75,9.33790066279471,-0.602740361355245,9.33802150189877,
8.027,0.900000000000001,2,2,3,1,1.75,9.4547707401216,-0.550738289020956,9.45257071405649,
8.037,0.910000000000001,2,2,3,1,1.75,9.5718586910516,-0.496515519917011,9.57197958603501,
8.047,0.920000000000001,2,2,3,1,1.75,9.69033918343484,-0.443719117902219,9.6904600225389,
8.057,0.930000000000001,2,2,3,1,1.75,9.80871817097068,-0.39157897233963,9.80883903801441,
8.067,0.94,2,2,3,1,1.75,9.92380740121007,-0.342282471247017,9.9239282682538,
8.077,0.95,2,2,3,1,1.75,10.0439466163516,-0.292380908504128,10.0416998751461,
8.087,0.96,2,2,3,1,1.75,10.1637090649456,-0.241430015303195,10.1638299040496,
8.097,0.97,2,2,3,1,1.75,10.2891780808568,-0.189198143780231,10.2892989479005,
8.107,0.98,2,2,3,1,1.75,10.4168253857642,-0.138815795071423,10.4169462248683,
8.117,0.990000000000001,2,2,3,1,1.75,10.5407493095845,-0.0932890875265002,10.5408701486886,
8.127,1,2,2,3,1,2,10.6684933975339,-0.0487759057432413,10.6686142645776,
8.137,0.00999999999999979,3,3,3,1,2,10.8055631909519,-0.0163983274251223,10.805684030056,
8.143,0.016,3,3,3,1,2,10.8731969632208,-0.0125006586313248,10.8733178302646,
8.149,0.0220000000000002,3,3,3,1,2,10.8982519246638,-0.0147442193701863,10.8983727917075,
8.159,0.032,3,3,3,1,2,10.8551245462149,-0.03645870834589,10.855245385319,
8.169,0.0419999999999998,3,3,3,1,2,10.7643796037883,-0.0874557998031378,10.7645004428923,
8.179,0.0519999999999996,3,3,3,1,2,10.7011147588491,-0.128168724477291,10.7023172825575,
8.189,0.0619999999999994,3,3,3,1,2,10.6510948296636,-0.162920881994069,10.65221183002,
8.199,0.0719999999999992,3,3,3,1,2,10.5951418820769,-0.200182292610407,10.5952627211809,
8.209,0.081999999999999,3,3,3,1,2,10.5320703797042,-0.241483156569302,10.532191246748,
8.219,0.0919999999999987,3,3,3,1,2,10.4628919064999,-0.284497761167586,10.4643931053579,
8.229,0.102,3,3,3,1,2,10.3914229944348,-0.328964376822114,10.3930151648819,
8.239,0.112,3,3,3,1,2,10.315974354744,-0.37566174287349,10.3160952217877,
8.249,0.122,3,3,3,1,2,10.2400872297585,-0.421210178174078,10.2402080968022,
8.259,0.132,3,3,3,1,2,10.1604923699051,-0.46793082728982,10.1606132090092,
8.269,0.141999999999999,3,3,3,1,2,10.0783574301749,-0.515278307721019,10.078478269279,
8.279,0.151999999999999,3,3,3,1,2,9.99451621435583,-0.562760806642473,9.99635657295585,
8.289,0.161999999999999,3,3,3,1,2,9.90961521863937,-0.61143581289798,9.90973608568311,
8.299,0.171999999999999,3,3,3,1,2,9.8189374152571,-0.662377825938165,9.81905825436115,
8.309,0.182,3,3,3,1,2,9.72981755621731,-0.711485035717487,9.72993839532137,
8.319,0.192,3,3,3,1,2,9.63846961967647,-0.761800305917859,9.63859045878053,
8.329,0.202,3,3,3,1,2,9.54373760148883,-0.813071778975427,9.54385846853256,
8.339,0.212,3,3,3,1,2,9.44966537877917,-0.863505522720516,9.4497862458229,
8.349,0.222,3,3,3,1,2,9.35170023702085,-0.915780756622553,9.35372957959771,
8.359,0.231999999999999,3,3,3,1,2,9.2539288289845,-0.967366867698729,9.25404969602823,
8.369,0.241999999999999,3,3,3,1,2,9.15494953282177,-1.01938238367438,9.1570757701993,
8.387,0.26,3,3,3,1,2.25,8.97215603850782,-1.11468218732625,8.97227687761188,
8.397,0.27,3,3,3,1,2.25,8.86934204958379,-1.16714835632592,8.86946288868785,
8.407,0.279999999999999,3,3,3,1,2.25,8.76679144799709,-1.21949672233313,8.76691231504083,
8.417,0.289999999999999,3,3,3,1,2.25,8.6620746832341,-1.27188751939684,8.66433190181851,
8.427,0.299999999999999,3,3,3,1,2.25,8.55592480860651,-1.32671711966395,8.55604570358992,
8.437,0.309999999999999,3,3,3,1,2.25,8.44904657453299,-1.38065175618976,8.44916744157672,
8.447,0.32,3,3,3,1,2.25,8.34152606315911,-1.433116029948,8.34383217617869,
8.457,0.33,3,3,3,1,2.25,8.23215854354203,-1.48873229045421,8.23446594178677,
8.467,0.34,3,3,3,1,2.25,8.1234310939908,-1.54251387342811,8.12574874609709,
8.477,0.35,3,3,3,1,2.25,8.01453293301165,-1.59668422304094,8.01465377211571,
8.487,0.359999999999999,3,3,3,1,2.25,7.90351239033043,-1.65095719508827,7.90363322943449,
8.497,0.369999999999999,3,3,3,1,2.25,7.78954245150089,-1.70552609488368,7.79187563806772,
