"Total Time (s)","Cycle Elapsed Time (s)","Total Cycles","Elapsed Cycles","Step","Loop 1","Total Cycle Count(Linear Waveform)","Position(Linear:Position) (mm)","Force(Linear:Load) (kN)","Displacement(Linear:Digital Position) (mm)",
997.124,0,992,992,3,1,991,11.2677953392267,-0.000919001176953316,11.2679162062705,
997.134,0.00999999999999091,992,992,3,1,991,11.411027032882,-0.00556568149477243,11.4085874520242,
997.142,0.0180000000000291,992,992,3,1,991,11.463751103729,-0.00869086012244225,11.4638719707727,
997.152,0.02800000000002,992,992,3,1,991,11.3787116948515,-0.0092735979706049,11.3788325339556,
997.162,0.0380000000000109,992,992,3,1,991,11.1247118096799,-0.00308984890580177,11.1248326487839,
997.172,0.0480000000000018,992,992,3,1,991,10.8508957922459,0.00302353873848915,10.8510166592896,
997.178,0.0539999999999736,992,992,3,1,991,10.7377638481557,0.00392327550798655,10.7378847151995,
997.188,0.0639999999999645,992,992,3,1,991,10.6589346751571,0.00064200721681118,10.6590555422008,
997.198,0.0739999999999554,992,992,3,1,991,10.6448662094772,-0.00384895130991936,10.6449870765209,
997.208,0.0839999999999463,992,992,3,1,991,10.58395142667,-0.00727013684809208,10.584072265774,
997.218,0.0940000000000509,992,992,3,1,991,10.4339249711484,-0.018400652334094,10.4340458102524,
997.228,0.104000000000042,992,992,3,1,991,10.2838148362935,-0.0691588642075658,10.2858524210751,
997.238,0.114000000000033,992,992,3,1,991,10.2188725490123,-0.100595499388874,10.2189933881164,
997.248,0.124000000000024,992,992,3,1,991,10.1576049160212,-0.132247000001371,10.1591675542295,
997.258,0.134000000000015,992,992,3,1,991,10.0727992784232,-0.177129348739982,10.0729201175272,
997.268,0.144000000000005,992,992,3,1,991,9.97302180156112,-0.22846847306937,9.97314266860485,
997.278,0.153999999999996,992,992,3,1,991,9.87565571442246,-0.278412695042789,9.8757765814662,
997.288,0.163999999999987,992,992,3,1,991,9.77702739648521,-0.327705447562039,9.77714823558927,
997.298,0.173999999999978,992,992,3,1,991,9.67335674911737,-0.379057037644088,9.67347761616111,
997.308,0.183999999999969,992,992,3,1,991,9.57040976732969,-0.429909345693886,9.57053063437343,
997.318,0.19399999999996,992,992,3,1,991,9.46618803776801,-0.480542536824942,9.46845263242722,
997.328,0.203999999999951,992,992,3,1,991,9.35784252360463,-0.533007117919624,9.36012882739305,
997.338,0.213999999999942,992,992,3,1,991,9.24915323965251,-0.585242598317564,9.25147438421845,
997.348,0.224000000000046,992,992,3,1,991,9.13811621256173,-0.638405987992883,9.13823705166578,
997.358,0.234000000000037,992,992,3,1,991,9.02430268004536,-0.69226881954819,9.0244235470891,
997.368,0.244000000000028,992,992,3,1,991,8.90972153283656,-0.745891937986016,8.90984237194061,
997.378,0.254000000000019,992,992,3,1,991.25,8.7978320941329,-0.798426601104438,8.79795296117663,
997.388,0.26400000000001,992,992,3,1,991.25,8.67792296223342,-0.853222627192736,8.68040721863508,
997.398,0.274000000000001,992,992,3,1,991.25,8.55896411463618,-0.909803551621735,8.55908498167992,
997.408,0.283999999999992,992,992,3,1,991.25,8.44158696010709,-0.964236790314317,8.44170782715082,
997.418,0.293999999999983,992,992,3,1,991.25,8.31753923557699,-1.02142642717808,8.32010474056005,
997.428,0.303999999999974,992,992,3,1,991.25,8.1955146510154,-1.07713479083031,8.19805456325412,
997.438,0.313999999999965,992,992,3,1,991.25,8.07580296881497,-1.1319872085005,8.07592380791903,
997.448,0.323999999999955,992,992,3,1,991.25,7.94887357391417,-1.19034992530942,7.9514953494072,
997.458,0.333999999999946,992,992,3,1,991.25,7.82241538167,-1.24681103508919,7.82504606992006,
997.468,0.344000000000051,992,992,3,1,991.25,7.69734341651201,-1.30511974915862,7.69998969510198,
997.478,0.354000000000042,992,992,3,1,991.25,7.57212549448013,-1.36237308848649,7.57224636152387,
997.488,0.364000000000033,992,992,3,1,991.25,7.44028975255787,-1.42289531417191,7.44041059166193,
997.498,0.374000000000024,992,992,3,1,991.25,7.31097713112831,-1.48117553442717,7.31109799817204,
997.508,0.384000000000015,992,992,3,1,991.25,7.18568053096533,-1.53778229374439,7.18580139800906,
997.518,0.394000000000005,992,992,3,1,991.25,7.05635483376682,-1.59651836846024,7.05647567287087,
997.528,0.403999999999996,992,992,3,1,991.25,6.92248326726258,-1.65722019504756,6.92260410636663,
997.538,0.413999999999987,992,992,3,1,991.25,6.79319635033607,-1.71603281516582,6.79331721737981,
997.548,0.423999999999978,992,992,3,1,991.25,6.66224995627999,-1.77380019798875,6.66500810533762,
997.558,0.433999999999969,992,992,3,1,991.25,6.52901457622647,-1.83617510832846,6.52913544327021,
997.568,0.44399999999996,992,992,3,1,991.25,6.39559747651219,-1.89685496501625,6.39836724847555,
997.578,0.453999999999951,992,992,3,1,991.25,6.26205467619002,-1.95707183796912,6.26487331464887,
997.588,0.463999999999942,992,992,3,1,991.25,6.12814371474087,-2.0186764234677,6.12826455384493,
997.598,0.474000000000046,992,992,3,1,991.25,5.99192985333502,-2.07996821030974,5.99205069243908,
997.608,0.484000000000037,992,992,3,1,991.25,5.85616146214306,-2.14188531506807,5.85628230124712,
997.618,0.494000000000028,992,992,3,1,991.25,5.72058412246406,-2.20333349891007,5.72070496156812,
997.631,0.506999999999948,992,992,3,1,991.5,5.54364413022995,-2.28139456361532,5.54376499727368,
997.637,0.513000000000034,992,992,3,1,991.5,5.48211461864412,-2.29772182647139,5.48223545774817,
997.644,0.519999999999982,992,992,3,1,991.5,5.46248727478087,-2.28560015093535,5.46257810667157,
997.654,0.529999999999973,992,992,3,1,991.5,5.48149231821299,-2.2451126947999,5.48161318525672,
997.664,0.539999999999964,992,992,3,1,991.5,5.54006441496313,-2.18864078633487,5.54018530994654,
997.674,0.549999999999955,992,992,3,1,991.5,5.60470123775303,-2.13577290531248,5.60354121029377,
997.684,0.559999999999945,992,992,3,1,991.5,5.66935080103576,-2.08688750397414,5.66947164013982,
997.694,0.57000000000005,992,992,3,1,991.5,5.73858878575265,-2.03847129829228,5.73726994916797,
997.704,0.580000000000041,992,992,3,1,991.5,5.81194566562772,-1.9897714164108,5.81059226766229,
997.714,0.590000000000032,992,992,3,1,991.5,5.88900161907077,-1.94077531807125,5.88754121214151,
997.724,0.600000000000023,992,992,3,1,991.5,5.97080368548632,-1.89071660395712,5.97092455253005,
997.734,0.610000000000014,992,992,3,1,991.5,6.05697833932936,-1.83892359491438,6.05709917843342,
997.744,0.620000000000005,992,992,3,1,991.5,6.14632115699351,-1.78733255248517,6.14644199609756,
997.754,0.629999999999995,992,992,3,1,991.5,6.23991027474403,-1.73400278668851,6.23814890161157,
997.764,0.639999999999986,992,992,3,1,991.5,6.33556843735278,-1.6814551083371,6.33375803008675,
997.774,0.649999999999977,992,992,3,1,991.5,6.43374695442617,-1.62825321312994,6.43386779353022,
997.784,0.659999999999968,992,992,3,1,991.5,6.5337994415313,-1.57491939142346,6.53392028063536,
997.794,0.669999999999959,992,992,3,1,991.5,6.64028456434608,-1.51928579900414,6.64040543138981,
997.804,0.67999999999995,992,992,3,1,991.5,6.74711775965989,-1.46395889110863,6.74723859876394,
997.814,0.689999999999941,992,992,3,1,991.5,6.85683539137244,-1.40861157793552,6.85695625841618,
997.824,0.700000000000045,992,992,3,1,991.5,6.96593946777284,-1.35393107309937,6.9660603068769,
997.834,0.710000000000036,992,992,3,1,991.5,7.08078148774803,-1.29767619073391,7.08090232685208,
997.844,0.720000000000027,992,992,3,1,991.5,7.19454456120729,-1.24197769444436,7.19466542825103,
997.854,0.730000000000018,992,992,3,1,991.5,7.31528967618942,-1.1838550446555,7.31304394081235,
997.864,0.740000000000009,992,992,3,1,991.5,7.43326161056757,-1.12820075359195,7.4333824776113,
997.874,0.75,992,992,3,1,991.75,7.55393483676016,-1.07153579127043,7.5516258738935,
997.884,0.759999999999991,992,992,3,1,991.75,7.676986400038,-1.01418483071029,7.67710726708174,
997.894,0.769999999999982,992,992,3,1,991.75,7.80003162100911,-0.957796340808272,7.80015248805285,
997.904,0.779999999999973,992,992,3,1,991.75,7.92415003292263,-0.90186576358974,7.92427087202668,
997.914,0.789999999999964,992,992,3,1,991.75,8.05244344286621,-0.844106646254659,8.05256428197026,
997.924,0.799999999999955,992,992,3,1,991.75,8.17746450193226,-0.788386426866055,8.17758534103632,
997.934,0.809999999999945,992,992,3,1,991.75,8.30869495868683,-0.730573311448097,8.30881582573056,
997.944,0.82000000000005,992,992,3,1,991.75,8.43740349635482,-0.674429186619818,8.43494379892945,
997.954,0.830000000000041,992,992,3,1,991.75,8.56794498860836,-0.617646467871964,8.5654241591692,
997.964,0.840000000000032,992,992,3,1,991.75,8.70170842856169,-0.559896961785853,8.70182929560542,
997.974,0.850000000000023,992,992,3,1,991.75,8.83512111380696,-0.503432159312069,8.8352419808507,
997.984,0.860000000000014,992,992,3,1,991.75,8.96670324727893,-0.448002335615456,8.96416537463665,
997.994,0.870000000000005,992,992,3,1,991.75,9.09767417237163,-0.393466511741281,9.09779503941536,
998.004,0.879999999999995,992,992,3,1,991.75,9.23442078754306,-0.337329511530697,9.2318657040596,
998.014,0.889999999999986,992,992,3,1,991.75,9.36804285272956,-0.283005121164024,9.36816371977329,
998.024,0.899999999999977,992,992,3,1,991.75,9.50345414690673,-0.229819784872234,9.50080957263708,
998.034,0.909999999999968,992,992,3,1,991.75,9.64642181061208,-0.171555131673813,9.64363871142268,
998.044,0.919999999999959,992,992,3,1,991.75,9.7864296566695,-0.119067206978798,9.78655049577355,
998.054,0.92999999999995,992,992,3,1,991.75,9.93013054132462,-0.0692043732851744,9.93025140836835,
998.064,0.939999999999941,992,992,3,1,991.75,10.0869696959853,-0.0220010289922357,10.0838715210557,
998.074,0.950000000000045,992,992,3,1,991.75,10.2677598875016,-0.000294623896479607,10.2678807266057,
998.084,0.960000000000036,992,992,3,1,991.75,10.4999156389385,-0.000820150598883629,10.5000364780426,
998.094,0.970000000000027,992,992,3,1,991.75,10.7657653838396,-0.00375686679035425,10.7658862508833,
998.104,0.980000000000018,992,992,3,1,991.75,10.9844870399684,-0.00485972501337528,10.9846078790724,
998.114,0.990000000000009,992,992,3,1,991.75,11.1399014946073,-0.00290022697299719,11.1400223337114,
998.124,1,992,992,3,1,992,11.268158107996,-0.000943909399211407,11.2682789750397,
998.136,0.0119999999999436,993,993,3,1,992,11.4336534775794,-0.00734293833374977,11.4337743446231,
998.142,0.0180000000000291,993,993,3,1,992,11.4629708603024,-0.00881287734955549,11.4630917273462,
998.152,0.02800000000002,993,993,3,1,992,11.3778187986463,-0.00900742132216692,11.3779396377504,
998.162,0.0380000000000109,993,993,3,1,992,11.1249470338225,-0.00318077392876148,11.1308746039867,
998.172,0.0480000000000018,993,993,3,1,992,10.8557724393904,0.00298060942441225,10.8558933064342,
998.178,0.0539999999999736,993,993,3,1,992,10.7377632055432,0.00386165920644999,10.7408160343766,
998.188,0.0639999999999645,993,993,3,1,992,10.6588000617921,0.000793524086475372,10.6589209288359,
998.198,0.0739999999999554,993,993,3,1,992,10.6452423613518,-0.00428218394517899,10.6453632004559,
998.208,0.0839999999999463,993,993,3,1,992,10.5840347427875,-0.00722258351743221,10.5841556377709,
998.218,0.0940000000000509,993,993,3,1,992,10.4294087737799,-0.0191524531692266,10.4295296408236,
998.228,0.104000000000042,993,993,3,1,992,10.2828688547015,-0.0692933006212115,10.2829897217453,
998.238,0.114000000000033,993,993,3,1,992,10.2184528671205,-0.100547461770475,10.2185737341642,
998.248,0.124000000000024,993,993,3,1,992,10.1577000785619,-0.131454598158598,10.1592424325645,
998.258,0.134000000000015,993,993,3,1,992,10.0732090417296,-0.176880941726267,10.0733298808336,
998.268,0.144000000000005,993,993,3,1,992,9.97307670302689,-0.228499309159815,9.97521143406629,
998.278,0.153999999999996,993,993,3,1,992,9.87538414075971,-0.278454492799938,9.87550500780344,
998.288,0.163999999999987,993,993,3,1,992,9.77676537819207,-0.327633079141378,9.77688621729612,
998.298,0.173999999999978,993,993,3,1,992,9.67331598512828,-0.378182036802173,9.6755238622427,
998.308,0.183999999999969,993,993,3,1,992,9.572699284181,-0.428794738836586,9.57282012328506,
998.318,0.19399999999996,993,993,3,1,992,9.46611961349845,-0.480741616338491,9.46624048054218,
998.328,0.203999999999951,993,993,3,1,992,9.35977963730693,-0.532021503895521,9.35990050435066,
998.338,0.213999999999942,993,993,3,1,992,9.25104190595448,-0.584371783770621,9.25116274505854,
998.348,0.224000000000046,993,993,3,1,992,9.13820075802505,-0.638202005065978,9.13832159712911,
998.358,0.234000000000037,993,993,3,1,992,9.02644981630147,-0.690947845578194,9.02657065540552,
998.368,0.244000000000028,993,993,3,1,992,8.90982801094651,-0.745049263350666,8.91219958662987,
998.384,0.259999999999991,993,993,3,1,992.25,8.72515210881829,-0.832511028274894,8.72763644903898,
998.394,0.269999999999982,993,993,3,1,992.25,8.60876139253378,-0.886359135620296,8.60888225957751,
998.404,0.279999999999973,993,993,3,1,992.25,8.48926487378776,-0.942184790037572,8.48938571289182,
998.414,0.289999999999964,993,993,3,1,992.25,8.36613971740007,-0.99886994343251,8.36626058444381,
998.424,0.299999999999955,993,993,3,1,992.25,8.24412178248167,-1.05495074763894,8.2442426495254,
998.434,0.309999999999945,993,993,3,1,992.25,8.12228389084339,-1.11066143494099,8.12484316527843,
998.444,0.32000000000005,993,993,3,1,992.25,8.00129653885961,-1.1661740578711,8.00141740590334,
998.454,0.330000000000041,993,993,3,1,992.25,7.87546307779849,-1.22373161371797,7.87558391690254,
998.464,0.340000000000032,993,993,3,1,992.25,7.74761754088104,-1.28205377608538,7.75023328140378,
998.474,0.350000000000023,993,993,3,1,992.25,7.62069996446371,-1.34008055087179,7.62082083150744,
998.484,0.360000000000014,993,993,3,1,992.25,7.49164030887186,-1.39891155064106,7.49176114797592,
998.494,0.370000000000005,993,993,3,1,992.25,7.36256584525108,-1.45664195064455,7.36524872481823,
998.504,0.379999999999995,993,993,3,1,992.25,7.23763419315219,-1.51406378019601,7.23775506019592,
998.514,0.389999999999986,993,993,3,1,992.25,7.10563223809004,-1.57415837515146,7.10575310513377,
998.524,0.399999999999977,993,993,3,1,992.25,6.97468562051654,-1.63370050955564,6.97480648756027,
998.534,0.409999999999968,993,993,3,1,992.25,6.84518231078982,-1.6921355528757,6.84530317783356,
998.544,0.419999999999959,993,993,3,1,992.25,6.71475598588586,-1.75160848535597,6.71487685292959,
998.554,0.42999999999995,993,993,3,1,992.25,6.58280440606177,-1.81116744875908,6.58560404554009,
998.564,0.439999999999941,993,993,3,1,992.25,6.44881672225892,-1.87268290668726,6.44893761724234,
998.574,0.450000000000045,993,993,3,1,992.25,6.31548833101988,-1.93279914092273,6.31560919806361,
998.584,0.460000000000036,993,993,3,1,992.25,6.18485338054597,-1.99207776691765,6.18497427552938,
998.594,0.470000000000027,993,993,3,1,992.25,6.04669779539108,-2.05550899263471,6.0495556332171,
998.604,0.480000000000018,993,993,3,1,992.25,5.91323372907937,-2.11548862978816,5.91335456818342,
998.614,0.490000000000009,993,993,3,1,992.25,5.77546910382807,-2.17723457142711,5.77831093221903,
998.624,0.5,993,993,3,1,992.5,5.63797510229051,-2.24083484616131,5.64086627215147,
998.634,0.509999999999991,993,993,3,1,992.5,5.50625779666007,-2.2927422542125,5.50637863576412,
998.638,0.51400000000001,993,993,3,1,992.5,5.47573925927281,-2.29763719253242,5.47586012631655,
998.644,0.519999999999982,993,993,3,1,992.5,5.46230440959334,-2.28595323860645,5.46242527663708,
998.654,0.529999999999973,993,993,3,1,992.5,5.48227149993181,-2.24391882307827,5.48239236697555,
998.664,0.539999999999964,993,993,3,1,992.5,5.54150185547769,-2.18770058359951,5.54162269458175,
998.674,0.549999999999955,993,993,3,1,992.5,5.60455952771008,-2.13568328879774,5.60468036681414,
998.684,0.559999999999945,993,993,3,1,992.5,5.66891175694764,-2.08694245666265,5.66903259605169,
998.694,0.57000000000005,993,993,3,1,992.5,5.73894035071134,-2.03824303578585,5.73906121775508,
998.704,0.580000000000041,993,993,3,1,992.5,5.81181180663407,-1.98971625883132,5.81193264573812,
998.714,0.590000000000032,993,993,3,1,992.5,5.88905802927911,-1.94067840464413,5.88917886838317,
998.724,0.600000000000023,993,993,3,1,992.5,5.96988913603127,-1.89094282221049,5.97000997513533,
998.734,0.610000000000014,993,993,3,1,992.5,6.05699795298278,-1.83890813495964,6.05537943542004,
998.744,0.620000000000005,993,993,3,1,992.5,6.14664391614497,-1.78682349156588,6.14676481112838,
998.754,0.629999999999995,993,993,3,1,992.5,6.23961414210498,-1.73533539753407,6.23784530907869,
998.764,0.639999999999986,993,993,3,1,992.5,6.33571000769734,-1.68111312668771,6.33583087474108,
998.774,0.649999999999977,993,993,3,1,992.5,6.43396764993668,-1.62800240330398,6.43408851698041,
998.784,0.659999999999968,993,993,3,1,992.5,6.53596091084182,-1.57384149730206,6.53403270989656,
998.794,0.669999999999959,993,993,3,1,992.5,6.63792377337813,-1.52012887876481,6.63804464042187,
998.804,0.67999999999995,993,993,3,1,992.5,6.74712887965143,-1.46386098116636,6.74724971875548,
998.814,0.689999999999941,993,993,3,1,992.5,6.85465109534562,-1.40954847913235,6.85477193444967,
998.824,0.700000000000045,993,993,3,1,992.5,6.96784869767725,-1.35312701109797,6.96796953678131,
998.834,0.710000000000036,993,993,3,1,992.5,7.08098103292286,-1.29716307856143,7.08110187202692,
998.844,0.720000000000027,993,993,3,1,992.5,7.19744036905468,-1.24041172675788,7.19756120815873,
998.854,0.730000000000018,993,993,3,1,992.5,7.31480073183775,-1.18425873573869,7.31492159888148,
998.864,0.740000000000009,993,993,3,1,992.5,7.43315027095377,-1.12818342167884,7.4309004843235,
998.874,0.75,993,993,3,1,992.75,7.55156773142517,-1.0726924194023,7.55168857052922,
998.884,0.759999999999991,993,993,3,1,992.75,7.67752982676029,-1.01375934667885,7.67765069380403,
998.894,0.769999999999982,993,993,3,1,992.75,7.80027220956981,-0.957682053558528,7.80039304867387,
998.904,0.779999999999973,993,993,3,1,992.75,7.92676071636379,-0.900587518699467,7.9268816113472,
998.914,0.789999999999964,993,993,3,1,992.75,8.05256014689803,-0.844111959449947,8.05268101394176,
998.924,0.799999999999955,993,993,3,1,992.75,8.18019560538232,-0.787234758026898,8.17773967981339,
998.934,0.809999999999945,993,993,3,1,992.75,8.30907398834825,-0.730280200950801,8.30919485539198,
998.944,0.82000000000005,993,993,3,1,992.75,8.43457667157054,-0.675749978981912,8.43469753861427,
998.954,0.830000000000041,993,993,3,1,992.75,8.5678159352392,-0.617649513296783,8.56527965515852,
998.964,0.840000000000032,993,993,3,1,992.75,8.70158764533699,-0.55961926933378,8.70170848444104,
998.974,0.850000000000023,993,993,3,1,992.75,8.83492279797792,-0.503447409719229,8.83504366502166,
998.984,0.860000000000014,993,993,3,1,992.75,8.96708903834224,-0.44774352107197,8.96720990538597,
998.994,0.870000000000005,993,993,3,1,992.75,9.1002082452178,-0.392628619447351,9.09767271950841,
999.004,0.879999999999995,993,993,3,1,992.75,9.2339931987226,-0.338480551727116,9.23143029212951,
999.014,0.889999999999986,993,993,3,1,992.75,9.36794489622116,-0.283303447067738,9.36806576326489,
999.024,0.899999999999977,993,993,3,1,992.75,9.50318369083107,-0.228409506380558,9.50330452993512,
999.034,0.909999999999968,993,993,3,1,992.75,9.64663471095264,-0.1714535523206,9.6467555500567,
999.044,0.919999999999959,993,993,3,1,992.75,9.78947122581303,-0.117965703830123,9.78959206491709,
999.054,0.92999999999995,993,993,3,1,992.75,9.93314268998802,-0.0682758679613471,9.93032908067107,
999.064,0.939999999999941,993,993,3,1,992.75,10.0869357492775,-0.0220248475670815,10.0870565883815,
999.074,0.950000000000045,993,993,3,1,992.75,10.2678963448852,-0.000181985087692738,10.2680171839893,
999.084,0.960000000000036,993,993,3,1,992.75,10.4998580552638,-0.000932761467993259,10.4999789223075,
999.094,0.970000000000027,993,993,3,1,992.75,10.7653395272791,-0.0035796919837594,10.7654603943229,
999.104,0.980000000000018,993,993,3,1,992.75,10.9837560541928,-0.00457316171377897,10.9801563620567,
999.114,0.990000000000009,993,993,3,1,992.75,11.1404231842607,-0.00310434494167566,11.1405440233648,
999.124,1,993,993,3,1,993,11.268803877756,-0.000710771419107914,11.2662223912776,
